,E (eV),I (erg/s/cm**2)
0,0.12373682038306764,1.1957876076131503e-05
1,0.12988088554512012,1.3063631087234134e-05
2,0.136261450495965,1.4317759454949116e-05
3,0.142954334381579,1.5746724655060775e-05
4,0.14997495382513726,1.737522339316781e-05
5,0.15734047514334634,1.921935502076822e-05
6,0.1650702891855128,2.1302163865685544e-05
7,0.17316242176398977,2.3646114316234925e-05
8,0.18166196898460565,2.6287128250772874e-05
9,0.19059845386441798,2.9255096091818547e-05
10,0.19994241869374835,3.25784882373851e-05
11,0.20978729928408152,3.6302449319225556e-05
12,0.22006441948402825,4.04756731970857e-05
13,0.23088322901865302,4.517706091963296e-05
14,0.24225145320667346,5.045960979393846e-05
15,0.25411824889290163,5.63337666929261e-05
16,0.2666328896979398,6.285911661337055e-05
17,0.279684849685539,7.000480748661067e-05
18,0.2934539500028684,7.764724169889553e-05
19,0.30788252831590723,8.591355672833654e-05
20,0.32295987013277455,9.501810644408956e-05
21,0.33884748332308773,0.00010477052661354856
22,0.3554595580724406,0.00011500443654749539
23,0.3728850947328217,0.00012600834134427234
24,0.39124106698359445,0.00013803008392898088
25,0.4104081228683404,0.0001508441056128311
26,0.430650551826223,0.0001639032038775405
27,0.45183780576702226,0.00017709533061996462
28,0.47394607742992073,0.00019107975789462692
29,0.49732969880299527,0.00020680662796440644
30,0.5215998909768427,0.00022243530046071883
31,0.5473920267214383,0.00023681732983005303
32,0.5742672254830576,0.00025007250258567425
33,0.6024504072358395,0.00026266436974265166
34,0.6319281036934179,0.0002744750363467911
35,0.6630176148387874,0.00028547460629187247
36,0.6957592258008507,0.0002950401028267579
37,0.7297486403648201,0.00030253888426392194
38,0.7653351482448788,0.00030924432190846714
39,0.8030070853681331,0.00031612477739402636
40,0.8428571990974468,0.0003237183683458516
41,0.8837084382127298,0.00033134541206175004
42,0.9273320408775417,0.0003387959077783889
43,0.9731891205322233,0.0003459068232431266
44,1.0204468638729816,0.00035166156501482103
45,1.070676113370654,0.0003567336855048776
46,1.1230461401152967,0.0003610477594549925
47,1.178557926632987,0.0003638278372221251
48,1.236134535194631,0.0003648551900561823
49,1.2973139477748237,0.0003647425978055197
50,1.3609691984709518,0.00036312760799297837
51,1.4278969706398996,0.00036061193896997083
52,1.497937585018665,0.0003571486913957754
53,1.571609759071332,0.0003525826822954082
54,1.6487273123446937,0.0003467300686007106
55,1.7296916008609082,0.00034046603470012465
56,1.8147584009701614,0.0003342332702560119
57,1.9039357182686723,0.00032607915382060546
58,1.997169683692689,0.00031701208047520753
59,2.0953911437248633,0.00030737616375838803
60,2.1983030844868283,0.00029711555706490406
61,2.3062554678145446,0.0002867494285443928
62,2.419677867960215,0.00027681442212843356
63,2.5385809572380396,0.0002677700321656176
64,2.662892911136729,0.00025821577884176735
65,2.7936974743190754,0.00024890607695799365
66,2.931070778862248,0.00024158688891820688
67,3.075007289965869,0.0002351506303288591
68,3.22623715637324,0.0002320445652265466
69,3.3847746096507194,0.0002332778138375568
70,3.5505238819691614,0.00023590046894756772
71,3.72548960101699,0.00023869519564966165
72,3.9087104013569633,0.0002414229752688033
73,4.100009720408016,0.00024385581905275811
74,4.302022690507662,0.00024557387903783597
75,4.513443535509925,0.00024689766353909915
76,4.7340318412649784,0.0002469072599423671
77,4.9673194689297,0.0002454090453345509
78,5.211613868929474,0.00024193650895242344
79,5.466679627210687,0.00023650924929161319
80,5.734703697419032,0.00022987341908358924
81,6.015734785253603,0.000222094196563395
82,6.312845923994953,0.00021339062369358263
83,6.623092624332553,0.0002036027709834831
84,6.945898819399489,0.0001930182033882945
85,7.288906169160725,0.00018159554529312592
86,7.648630100444126,0.00016941096274011324
87,8.024873394488845,0.0001571896113451682
88,8.417127897299366,0.0001437420876255374
89,8.830790165776738,0.0001294821997229553
90,9.266389680857458,0.00011451204926858952
91,9.716637456029325,9.780766958345343e-05
92,10.196076803785866,8.453274633294535e-05
93,10.197096411160116,6.300357335416045e-05
94,10.697523203570578,5.150394092316704e-05
95,11.220298094027351,3.785771653519078e-05
96,11.277348208104517,3.57059953898576e-05
97,11.33249492093084,3.427560319514875e-05
98,11.387556042994593,3.288960751916058e-05
99,11.442732384962467,3.154829170500665e-05
100,11.497806231080576,3.024885711550673e-05
101,11.552982159435048,2.9001538777300378e-05
102,11.60803808003817,2.785038872409881e-05
103,11.66318237649147,2.6804098217447775e-05
104,11.718299302350081,2.576354281110344e-05
105,11.774386889062887,2.4732229088785475e-05
106,11.831239759888943,2.2991671241299205e-05
107,11.88910033581941,2.155034344462573e-05
108,11.946838883551488,2.035520251283904e-05
109,12.004676019575147,1.9200444572591698e-05
110,12.062489073502768,1.8084123996621325e-05
111,12.084239175008497,1.7600623616844214e-05
112,12.085447598260815,1.782697017315213e-05
113,12.120387699144974,1.7208007394733265e-05
114,12.178246692732069,1.6192787509252515e-05
115,12.236056918033833,1.5308148235366222e-05
116,12.293809078272739,1.4455288264466196e-05
117,12.349033260616933,1.3630158520681606e-05
118,12.412331205118095,1.2195116410806571e-05
119,12.472992945152267,1.1026327046366428e-05
120,12.533667667749175,1.0078664800836262e-05
121,12.594334262298528,9.151390467173064e-06
122,12.654996798266383,8.243771761861953e-06
123,12.715659670295127,7.3555436845215e-06
124,12.749027653853984,6.873533106107172e-06
125,12.75030255729707,6.91956362939821e-06
126,12.776327611809172,6.617221111098226e-06
127,12.836992402242176,5.954891221306285e-06
128,12.897659083868033,5.307259610290397e-06
129,12.958224700964186,4.674146522024964e-06
130,12.968023907206273,4.563005908289432e-06
131,12.977729272186895,4.444226729143929e-06
132,12.98743557187938,4.332097592439264e-06
133,12.99714277499061,4.226265453174613e-06
134,13.006850855669747,4.126376184099259e-06
135,13.01655978398424,4.032089002993884e-06
136,13.026255846745054,3.94306153026156e-06
137,13.035966364205771,3.85901542793098e-06
138,13.045677643585913,3.779667910553402e-06
139,13.055100971847107,3.7046436453219063e-06
140,13.056406482681856,3.719705976881917e-06
141,13.07197602988804,3.6012898106397333e-06
142,13.08857696836869,3.4936396607112766e-06
143,13.10517856808655,3.396037566783752e-06
144,13.121780675297172,3.3075260599017016e-06
145,13.138383130813812,3.2272481356071193e-06
146,13.154985780892021,3.154427042410114e-06
147,13.17158846498449,3.0883551317875826e-06
148,13.188191025265052,3.028395500201735e-06
149,13.204793301186402,2.9739756687590716e-06
150,13.220760709109392,2.9244359393612904e-06
151,13.222082786249304,2.9331057289183925e-06
152,13.231455359792385,2.905286946013543e-06
153,13.241516765637503,2.879137138264279e-06
154,13.251579321164607,2.85447041752535e-06
155,13.261642997801719,2.8312017872693335e-06
156,13.2716935585402,2.8092456054287984e-06
157,13.281759363109414,2.7885308903651628e-06
158,13.29182620035156,2.7689873001236047e-06
159,13.301879765229476,2.7505411044032027e-06
160,13.31194855080843,2.733134947664336e-06
161,13.321617485156088,2.7165517590709195e-06
162,13.322949646843785,2.722783296913724e-06
163,13.32850586123871,2.7124902664065884e-06
164,13.335014108918516,2.7027287171546647e-06
165,13.341514360526098,2.69331952656579e-06
166,13.348020952391732,2.6842602262376264e-06
167,13.354533892678841,2.6755286969877547e-06
168,13.361038794716041,2.66711397766177e-06
169,13.367535623128502,2.659004314067602e-06
170,13.3740387741116,2.651188543027291e-06
171,13.380548254468188,2.6436589239152906e-06
172,13.386341387707589,2.636225031978806e-06
173,13.387680021628666,2.6412513313970405e-06
174,13.391459695717192,2.6362173415432136e-06
175,13.39587267722983,2.631560301465433e-06
176,13.400274084370094,2.6270176506939037e-06
177,13.404692878239471,2.622590680640265e-06
178,13.40910008549134,2.618267895655087e-06
179,13.413510190758156,2.6140522404175394e-06
180,13.417923198121631,2.6099415649078374e-06
181,13.422339110302905,2.6059318752996006e-06
182,13.42674338960728,2.6020163540170534e-06
183,13.431296060882639,2.5981576944447897e-06
184,13.432639190128311,2.6023760809089213e-06
185,13.434366856024889,2.599251079122831e-06
186,13.437570128546183,2.5965774940136365e-06
187,13.44078950069699,2.59395468297687e-06
188,13.443995837222818,2.5913760501808077e-06
189,13.447203704390345,2.5888417614835955e-06
190,13.45041310356014,2.586354111514751e-06
191,13.45362403337163,2.5839131343573085e-06
192,13.45683649790653,2.5815124907363117e-06
193,13.460035883278197,2.5791535188704813e-06
194,13.463382988499074,2.576901475178798e-06
195,13.464729325969746,2.5803051380334187e-06
196,13.594769071714488,2.51300182416019e-06
197,14.203722526530077,2.4382223222724207e-06
198,14.900167520628429,2.3622470830077654e-06
199,15.632870247767363,2.296631658628558e-06
200,16.40003888027149,2.238594066832404e-06
201,17.205702739209883,2.1869851690659223e-06
202,18.0498316988328,2.1403701308765607e-06
203,18.937573535744082,2.097376219943394e-06
204,19.866094204935223,2.0557201247438946e-06
205,20.844703082814913,2.0144161528817133e-06
206,21.86671850748218,1.9720704260475476e-06
207,22.943059573394503,1.9274576410830907e-06
208,24.069946405098946,1.8805780926249614e-06
209,25.25138369325867,1.8317467183162675e-06
210,26.492370498690782,1.7840727317523936e-06
211,27.792937443753218,1.7407153492010693e-06
212,29.159053135810137,1.6942392231149842e-06
213,30.590746097859338,1.6432487172375332e-06
214,32.087032591243975,1.5877805105270653e-06
215,33.6639407910427,1.5279647643907593e-06
216,35.32316066582809,1.4653773680526626e-06
217,37.05448115245357,1.4035744782007379e-06
218,38.878737514413515,1.339709411535495e-06
219,40.784307215143464,1.2769878047399794e-06
220,40.78838564600103,1.0832890252209328e-06
221,42.782710122565675,1.0231499115427854e-06
222,44.88931713788715,9.635578147750166e-07
223,45.10947489386102,9.614558471267336e-07
224,45.329813954003804,9.565117102609048e-07
225,45.55030784705782,9.510330568149865e-07
226,45.770760567891045,9.451340221852373e-07
227,45.991310226643954,9.388871675898418e-07
228,46.211756393609576,9.323686168227085e-07
229,46.43223926740394,9.25643374508889e-07
230,46.65272950596588,9.187724822751902e-07
231,46.87319720803975,9.117973686959258e-07
232,47.088603849464064,9.046796015240925e-07
233,47.3249590381952,9.036842316468434e-07
234,47.556218930243865,8.98851918122566e-07
235,47.7875397227841,8.934748709592229e-07
236,48.0188900560288,8.876531057949411e-07
237,48.250237948410216,8.814633761670269e-07
238,48.35580886686648,8.786213636744209e-07
239,48.36064444834747,9.032392182631561e-07
240,48.48155079930104,8.994747514392389e-07
241,48.71279538221159,8.926663501874066e-07
242,48.94413106619482,8.857132634836474e-07
243,49.17533383333477,8.786501835458957e-07
244,49.41582061993291,8.717185375058723e-07
245,49.649324817751236,8.719376697631194e-07
246,49.89207216621415,8.671830007629837e-07
247,50.13456930714151,8.618343682588116e-07
248,50.377388225689046,8.560114838893706e-07
249,50.619883859104405,8.49791235545684e-07
250,50.86263868390165,8.432781645386921e-07
251,51.00135497074889,8.396812959886056e-07
252,51.00645510698026,8.527794539028145e-07
253,51.105205120039926,8.495616078350731e-07
254,51.347969607608135,8.426244653791834e-07
255,51.59069000317147,8.355783304478787e-07
256,51.832898802496175,8.284441200691251e-07
257,51.8721498856514,8.329679618155104e-07
258,51.91102576430809,8.324188192973087e-07
259,51.949742286156955,8.318470501135471e-07
260,51.988516602315165,8.312575174003532e-07
261,52.02734884339748,8.306494702766947e-07
262,52.066239138658105,8.300244563163161e-07
263,52.1049686430697,8.293789521231174e-07
264,52.14375580845474,8.287164050903929e-07
265,52.18260076270686,8.280390829577175e-07
266,52.225903089801974,8.273478240992365e-07
267,52.23112568009028,8.358369195215787e-07
268,52.28801437881661,8.344346662222122e-07
269,52.354252605744634,8.331629958650224e-07
270,52.4206588658379,8.318516817072816e-07
271,52.487233798564496,8.305037765269193e-07
272,52.553532525976394,8.291137162062607e-07
273,52.61999895321378,8.276917813198695e-07
274,52.686409831082976,8.262350599455157e-07
275,52.75276409969964,8.247466586300558e-07
276,52.819060696458294,8.232273670696247e-07
277,52.89432335145491,8.218021078054571e-07
278,52.899612783845704,8.276919922478484e-07
279,52.92570847645171,8.265387297046783e-07
280,52.96595392840032,8.25578495184692e-07
281,53.006260633228216,8.246110519653714e-07
282,53.04662873107417,8.236347643822976e-07
283,53.086831057022884,8.226484355709733e-07
284,53.12709436645795,8.216557457966537e-07
285,53.167190801933764,8.206522650229754e-07
286,53.20757614637007,8.196466406638349e-07
287,53.24779420323372,8.186319931410177e-07
288,53.280745137951456,8.17531473830641e-07
289,53.286073211902114,8.218200002243448e-07
290,53.313966130926836,8.21224809084993e-07
291,53.34011380684603,8.205599738947707e-07
292,53.36605744210439,8.198893283055263e-07
293,53.3920263268282,8.192173000772464e-07
294,53.41802049775284,8.185428165523262e-07
295,53.444039991613735,8.178669455118875e-07
296,53.47008484514626,8.171895142443856e-07
297,53.4961550964464,8.165097894478266e-07
298,53.52225078088898,8.158284989160035e-07
299,53.556930425060784,8.152525729428933e-07
300,53.562286118590514,8.186549787785822e-07
301,53.56595449529937,8.179639105679319e-07
302,53.58354860255031,8.174958603679266e-07
303,53.60115427192848,8.170291382011281e-07
304,53.61877151431845,8.165612055644616e-07
305,53.63640034060479,8.160913280900925e-07
306,53.654040763032626,8.156227789896622e-07
307,53.671692792486525,8.151522832897022e-07
308,53.68935644121162,8.146823827955243e-07
309,53.707031718731905,8.142112676439758e-07
310,53.719364790056815,8.136653002869778e-07
311,53.724736726075946,8.163311605424699e-07
312,53.737525652430854,8.159942669250549e-07
313,53.75033877244858,8.156487458521526e-07
314,53.76315800414853,8.15303231395759e-07
315,53.77598335161241,8.149582870174538e-07
316,53.78881481892195,8.146122712587363e-07
317,53.80165241287999,8.142669972119538e-07
318,53.81449613484709,8.139199156025493e-07
319,53.82734599026555,8.135743113369384e-07
320,53.84020198457765,8.132276341849114e-07
321,53.859380510070835,8.129742957328769e-07
322,53.864766449080506,8.151364199451882e-07
323,54.37907628685795,8.006763488181425e-07
324,54.38451419557509,8.007564164690508e-07
325,57.05673904001712,7.164470293108174e-07
326,59.83797969777306,7.032473726362463e-07
327,62.776857688085116,7.049577390665212e-07
328,65.8790084676893,7.087134272915376e-07
329,69.11053173666157,7.116222164698779e-07
330,72.50543505005098,7.138224822404256e-07
331,76.06398400888658,7.155492584294869e-07
332,79.78397293127114,7.168243021977904e-07
333,83.71660630315476,7.185627757273749e-07
334,87.80757360875351,7.203447019909521e-07
335,92.18163117786365,7.23516049117632e-07
336,96.63623845336299,7.264132050930993e-07
337,101.46014233685892,7.312081537007866e-07
338,106.4242866399306,7.359622205848885e-07
339,111.5970242438014,7.412847151714711e-07
340,117.0767648107643,7.475245755638828e-07
341,122.87838843938509,7.54080907621509e-07
342,128.89520109707965,7.600309747600466e-07
343,135.23592270439354,7.663886004353923e-07
344,141.8746926820883,7.718895710166663e-07
345,148.84068899704465,7.767980034521781e-07
346,156.1515036966099,7.806075888344218e-07
347,163.82702686962895,7.834435351514507e-07
348,171.8662239193235,7.851340139742832e-07
349,180.314563604951,7.85167642585269e-07
350,189.17347258933728,7.841866446436715e-07
351,198.43837057482506,7.813660138451604e-07
352,208.20200492835968,7.778254860814105e-07
353,218.43603582571842,7.723813776961946e-07
354,229.13379030720859,7.658504816804405e-07
355,240.4194181399347,7.583327909743029e-07
356,252.2056426662996,7.495567377134682e-07
357,264.58449409931325,7.398518600776738e-07
358,277.618213020274,7.29384545454857e-07
359,291.24804776807804,7.180800090813866e-07
360,305.5305419790298,7.061267301891127e-07
361,320.53850551943304,6.935988387606003e-07
362,336.27419022309334,6.806925994914958e-07
363,352.82952172685884,6.674957397902056e-07
364,370.1023699553521,6.539125196477349e-07
365,388.30032550844584,6.402147333973181e-07
366,407.4409922282722,6.264241477728227e-07
367,427.3846740268177,6.124727896823686e-07
368,448.4061263473524,5.986163145597414e-07
369,470.35012873647855,5.846150460348578e-07
370,493.5680491048299,5.717831689795753e-07
371,517.6797241550428,5.58537890484197e-07
372,543.0761889406126,5.4728370887129e-07
373,569.7807625687461,5.422242592800242e-07
374,597.8027672854871,5.411431518335077e-07
375,627.1335049819714,5.420823576344241e-07
376,658.0907321397733,5.447402470184695e-07
377,690.3357123334891,5.492009326009894e-07
378,724.2073243871811,5.559728780034001e-07
379,759.7076834259018,5.652596997027638e-07
380,797.3266490999547,5.756057972507152e-07
381,836.0370460894682,5.858862769191508e-07
382,877.4543095192441,5.977435539945569e-07
383,920.4476164437452,6.100638787830429e-07
384,965.6097658491213,6.22741340287732e-07
385,1012.9435778998417,6.358275685589114e-07
386,1062.4189711653833,6.493754475668386e-07
387,1114.9666720771077,6.641873235209777e-07
388,1169.663150329875,6.789703117725364e-07
389,1227.567266683176,6.948074242653162e-07
390,1287.4796877983747,7.107501169928844e-07
391,1350.7385764786425,7.26995998627295e-07
392,1417.1253164357606,7.436283562253421e-07
393,1486.8005028782486,7.606049340169087e-07
394,1559.7470617061401,7.780526509996954e-07
395,1636.3243227533392,7.954066387162732e-07
396,1716.758431667909,8.134577570214761e-07
397,1801.0501733737967,8.315500582573533e-07
398,1889.4284354616202,8.509146103349855e-07
399,1982.1629725818273,8.707888715659158e-07
400,2079.5755440290677,8.906184124099153e-07
401,2181.6697859413352,9.112952901826502e-07
402,2288.7999618795393,9.32161168143871e-07
403,2401.4002311637014,9.540024765744338e-07
404,2519.4938820364887,9.773675477634906e-07
405,2643.0248120877745,1.0013873694685378e-06
406,2773.0774756212168,1.0264285604388273e-06
407,2909.0636774997965,1.0522260612829199e-06
408,3052.296748769963,1.0801466387107953e-06
409,3202.0737069989013,1.1086508467599574e-06
410,3359.09764115481,1.137750093001795e-06
411,3524.2835115126195,1.1688797610169852e-06
412,3696.609837060667,1.1988762433478603e-06
413,3878.144946356636,1.2282299332948808e-06
414,4069.061172792734,1.2585897732863577e-06
415,4269.4316093318685,1.2893645617873656e-06
416,4479.201370485286,1.320153995286571e-06
417,4698.154374195846,1.3510661804083584e-06
418,4929.792999404153,1.3821656790671557e-06
419,5172.477844597715,1.4131692748917809e-06
420,5426.008487309148,1.4439828874519174e-06
421,5692.575479110518,1.4754720109977885e-06
422,5972.268493979021,1.507821527705505e-06
423,6264.997167004439,1.5405670781398396e-06
424,6573.928628579969,1.5740284005703325e-06
425,6895.678194383414,1.6091185316280325e-06
426,7233.622750000516,1.6497625910055531e-06
427,7587.77808659771,1.6988623719498478e-06
428,7963.024658639149,1.754558560146531e-06
429,8354.736788073256,1.8116633408379804e-06
430,8762.140914135012,1.871130323148396e-06
431,9190.829795034075,1.9336668231885142e-06
432,9648.583185604855,1.9993508746548392e-06
433,10121.16685183849,2.06502521829978e-06
434,10615.093658819282,2.133129272079624e-06
435,11139.649050764798,2.205465560031916e-06
436,11685.607345430528,2.2796267744911005e-06
437,12263.53055737043,2.356387401403161e-06
438,12861.441279565825,2.4325908831969067e-06
439,13492.686248232816,2.509934033592326e-06
440,14155.07408779709,2.587134398836357e-06
441,14850.196902025664,2.6633850921185002e-06
442,15579.830853859854,2.738108019688401e-06
443,16345.984698090622,2.809384191167581e-06
444,17148.588372754886,2.8765897119704437e-06
445,17989.59575377403,2.9385317316901242e-06
446,18874.150393516873,2.994741572267881e-06
447,19799.472043279446,3.043186636097499e-06
