,E (eV),I (erg/s/cm**2)
0,0.12373682038306764,1.860988461617236e-05
1,0.12988088554512012,1.969899329452546e-05
2,0.136261450495965,2.0951632640264587e-05
3,0.142954334381579,2.241336723485806e-05
4,0.14997495382513726,2.4112855063731072e-05
5,0.15734047514334634,2.60714891783118e-05
6,0.1650702891855128,2.830418542132581e-05
7,0.17316242176398977,3.085330565595176e-05
8,0.18166196898460565,3.376073677104643e-05
9,0.19059845386441798,3.7049850734187554e-05
10,0.19994241869374835,4.0745608741101245e-05
11,0.20978729928408152,4.4907395699479126e-05
12,0.22006441948402825,4.96253042634293e-05
13,0.23088322901865302,5.505477051964078e-05
14,0.24225145320667346,6.128101634857798e-05
15,0.25411824889290163,6.83088001859927e-05
16,0.2666328896979398,7.625032222388303e-05
17,0.279684849685539,8.49694875100206e-05
18,0.2934539500028684,9.416326032489008e-05
19,0.30788252831590723,0.00010431261963941678
20,0.32295987013277455,0.00011607491710555387
21,0.33884748332308773,0.0001288893328825419
22,0.3554595580724406,0.00014220772663093244
23,0.3728850947328217,0.0001572016252209721
24,0.39124106698359445,0.00017452332577570784
25,0.4104081228683404,0.00019382563294231679
26,0.430650551826223,0.00021351595799947527
27,0.45183780576702226,0.00023247928519306478
28,0.47394607742992073,0.00025373507546226577
29,0.49732969880299527,0.0002799796977032769
30,0.5215998909768427,0.0003066118871523516
31,0.5473920267214383,0.00033125749559152816
32,0.5742672254830576,0.00035502784736528704
33,0.6024504072358395,0.0003779824809926877
34,0.6319281036934179,0.0003999742449743728
35,0.6630176148387874,0.00042110500525601444
36,0.6957592258008507,0.0004394912189049656
37,0.7297486403648201,0.0004535997893765312
38,0.7653351482448788,0.0004673014510820584
39,0.8030070853681331,0.00048166625060934253
40,0.8428571990974468,0.000497834967860644
41,0.8837084382127298,0.0005146599804348007
42,0.9273320408775417,0.0005317817562339116
43,0.9731891205322233,0.0005493259193839792
44,1.0204468638729816,0.0005659542745665995
45,1.070676113370654,0.0005817086246305821
46,1.1230461401152967,0.0005970565872879189
47,1.178557926632987,0.0006117409995586477
48,1.236134535194631,0.0006231438189632819
49,1.2973139477748237,0.0006345867667252675
50,1.3609691984709518,0.000643719242955996
51,1.4278969706398996,0.0006518536591205759
52,1.497937585018665,0.0006596073929135238
53,1.571609759071332,0.0006666356603512274
54,1.6487273123446937,0.0006711827280752166
55,1.7296916008609082,0.0006745940522221069
56,1.8147584009701614,0.0006774317636934007
57,1.9039357182686723,0.0006764562415972181
58,1.997169683692689,0.0006720649055276677
59,2.0953911437248633,0.0006650383540576586
60,2.1983030844868283,0.0006541504456454979
61,2.3062554678145446,0.0006409927499348056
62,2.419677867960215,0.0006263933293879464
63,2.5385809572380396,0.0006122699556745275
64,2.662892911136729,0.000593437528888542
65,2.7936974743190754,0.0005703484284114344
66,2.931070778862248,0.0005483649128243948
67,3.075007289965869,0.0005258773142223112
68,3.22623715637324,0.0005123805844704585
69,3.3847746096507194,0.0005165160686961737
70,3.5505238819691614,0.0005286208108474617
71,3.72548960101699,0.0005423707428521311
72,3.9087104013569633,0.0005573528837500058
73,4.100009720408016,0.0005733638731386631
74,4.302022690507662,0.0005910401041851571
75,4.513443535509925,0.0006107761927697467
76,4.7340318412649784,0.0006313765975557819
77,4.9673194689297,0.000651995804018101
78,5.211613868929474,0.0006714643745894156
79,5.466679627210687,0.0006856952136709096
80,5.734703697419032,0.0006940465863071434
81,6.015734785253603,0.0006983599090706257
82,6.312845923994953,0.0006970837063817112
83,6.623092624332553,0.0006874909919111447
84,6.945898819399489,0.0006694037574738929
85,7.288906169160725,0.0006434475653763598
86,7.648630100444126,0.0006119802159052939
87,8.024873394488845,0.0005833162067395206
88,8.417127897299366,0.0005476480778431434
89,8.830790165776738,0.0005068345622065525
90,9.266389680857458,0.00046173765663430415
91,9.716637456029325,0.00040777556421611483
92,10.196076803785866,0.00036805656204734726
93,10.197096411160116,0.00026207092670149775
94,10.697523203570578,0.00022200883461017843
95,11.220298094027351,0.00016706249221659484
96,11.277348208104517,0.00015823317097231844
97,11.33249492093084,0.0001521643168688433
98,11.387556042994593,0.00014625371150452663
99,11.442732384962467,0.00014050507945911452
100,11.497806231080576,0.00013490759918878222
101,11.552982159435048,0.00012953149157177588
102,11.60803808003817,0.00012455118913361793
103,11.66318237649147,0.00011997634964942423
104,11.718299302350081,0.00011540275947176868
105,11.774386889062887,0.00011083053718212958
106,11.831239759888943,0.0001032855972911609
107,11.88910033581941,9.691777107679793e-05
108,11.946838883551488,9.154622044045154e-05
109,12.004676019575147,8.632995475472597e-05
110,12.062489073502768,8.125962645645383e-05
111,12.084239175008497,7.905440485125044e-05
112,12.085447598260815,8.057165997112602e-05
113,12.120387699144974,7.777423159681477e-05
114,12.178246692732069,7.314658937335326e-05
115,12.236056918033833,6.907480796901591e-05
116,12.293809078272739,6.512707875108435e-05
117,12.349033260616933,6.128379126344793e-05
118,12.412331205118095,5.474630056363935e-05
119,12.472992945152267,4.9345453340607976e-05
120,12.533667667749175,4.490214557554579e-05
121,12.594334262298528,4.054330069604793e-05
122,12.654996798266383,3.626399014600748e-05
123,12.715659670295127,3.20646395186569e-05
124,12.749027653853984,2.977681739681155e-05
125,12.75030255729707,3.00767065102156e-05
126,12.776327611809172,2.8623843083376532e-05
127,12.836992402242176,2.5432685210739246e-05
128,12.897659083868033,2.230584344898561e-05
129,12.958224700964186,1.924294612454602e-05
130,12.968023907206273,1.8643084696790008e-05
131,12.977729272186895,1.8073002449007893e-05
132,12.98743557187938,1.753274752572216e-05
133,12.99714277499061,1.7020787310355273e-05
134,13.006850855669747,1.6535637463710602e-05
135,13.01655978398424,1.607590108872663e-05
136,13.026255846745054,1.564018741823971e-05
137,13.035966364205771,1.5227318698060474e-05
138,13.045677643585913,1.4836063278364512e-05
139,13.055100971847107,1.446586880534124e-05
140,13.056406482681856,1.4555262309986324e-05
141,13.07197602988804,1.3964236016949495e-05
142,13.08857696836869,1.3425990998221738e-05
143,13.10517856808655,1.2935225546436981e-05
144,13.121780675297172,1.2487866156648442e-05
145,13.138383130813812,1.2080031517356992e-05
146,13.154985780892021,1.1708363070337726e-05
147,13.17158846498449,1.136967626382958e-05
148,13.188191025265052,1.1061122368072917e-05
149,13.204793301186402,1.0780078795301183e-05
150,13.220760709109392,1.0522740260267503e-05
151,13.222082786249304,1.056946572055478e-05
152,13.231455359792385,1.0425685515034712e-05
153,13.241516765637503,1.0289806325664398e-05
154,13.251579321164607,1.0161483425869688e-05
155,13.261642997801719,1.004036594724505e-05
156,13.2716935585402,9.925984195411062e-06
157,13.281759363109414,9.818037802046161e-06
158,13.29182620035156,9.716189940292512e-06
159,13.301879765229476,9.620060577128996e-06
160,13.31194855080843,9.52941446160815e-06
161,13.321617485156088,9.444476183364932e-06
162,13.322949646843785,9.47698207158685e-06
163,13.32850586123871,9.421974103197545e-06
164,13.335014108918516,9.371309516774385e-06
165,13.341514360526098,9.322527701782087e-06
166,13.348020952391732,9.275577873674958e-06
167,13.354533892678841,9.230413303703825e-06
168,13.361038794716041,9.186945401000888e-06
169,13.367535623128502,9.145144900286419e-06
170,13.3740387741116,9.10494280058657e-06
171,13.380548254468188,9.066277581746492e-06
172,13.386341387707589,9.028116071228816e-06
173,13.387680021628666,9.052585161051986e-06
174,13.391459695717192,9.028187099294185e-06
175,13.39587267722983,9.004469633412019e-06
176,13.400274084370094,8.981352890312935e-06
177,13.404692878239471,8.958865707592392e-06
178,13.40910008549134,8.936939700922783e-06
179,13.413510190758156,8.915657978520148e-06
180,13.417923198121631,8.894916290954361e-06
181,13.422339110302905,8.874747211042094e-06
182,13.42674338960728,8.855109663108695e-06
183,13.431296060882639,8.83426528354745e-06
184,13.432639190128311,8.854706568016854e-06
185,13.434366856024889,8.841592095036204e-06
186,13.437570128546183,8.828292887854951e-06
187,13.44078950069699,8.815274390069901e-06
188,13.443995837222818,8.802508849313822e-06
189,13.447203704390345,8.79000602873443e-06
190,13.45041310356014,8.777742822617345e-06
191,13.45362403337163,8.765742698268932e-06
192,13.45683649790653,8.753973720772155e-06
193,13.460035883278197,8.74243538830203e-06
194,13.463382988499074,8.732773938759206e-06
195,13.464729325969746,8.749154434252593e-06
196,13.594769071714488,8.445724971245667e-06
197,14.203722526530077,8.172691651512292e-06
198,14.900167520628429,7.91636736159987e-06
199,15.632870247767363,7.685595066200049e-06
200,16.40003888027149,7.4700163240916184e-06
201,17.205702739209883,7.266355991596874e-06
202,18.0498316988328,7.079151102346686e-06
203,18.937573535744082,6.90626798702043e-06
204,19.866094204935223,6.73455394875343e-06
205,20.844703082814913,6.579661839901586e-06
206,21.86671850748218,6.4299267609337316e-06
207,22.943059573394503,6.297609318303911e-06
208,24.069946405098946,6.176397963276813e-06
209,25.25138369325867,6.070317973475145e-06
210,26.492370498690782,5.97879097934052e-06
211,27.792937443753218,5.880641571889343e-06
212,29.159053135810137,5.773289450766907e-06
213,30.590746097859338,5.650316722676485e-06
214,32.087032591243975,5.5101272884045945e-06
215,33.6639407910427,5.351045174876368e-06
216,35.32316066582809,5.169317859676577e-06
217,37.05448115245357,4.978300502515949e-06
218,38.878737514413515,4.838228679836977e-06
219,40.784307215143464,4.69560231067602e-06
220,40.78838564600103,3.7310559377750532e-06
221,42.782710122565675,3.4972084336856907e-06
222,44.88931713788715,3.2490289660907214e-06
223,45.10947489386102,3.2268790008758008e-06
224,45.329813954003804,3.2045032746502822e-06
225,45.55030784705782,3.180706351219643e-06
226,45.770760567891045,3.155901460114911e-06
227,45.991310226643954,3.130028103857196e-06
228,46.211756393609576,3.103286571180246e-06
229,46.43223926740394,3.0753578696533497e-06
230,46.65272950596588,3.046433619474688e-06
231,46.87319720803975,3.0170474469102445e-06
232,47.088603849464064,2.9869845969247774e-06
233,47.3249590381952,2.9835399986237038e-06
234,47.556218930243865,2.958915785958062e-06
235,47.7875397227841,2.9326531432441584e-06
236,48.0188900560288,2.905202984630953e-06
237,48.250237948410216,2.876409050366237e-06
238,48.35580886686648,2.8639078411719144e-06
239,48.36064444834747,2.9912623445932236e-06
240,48.48155079930104,2.975283529166116e-06
241,48.71279538221159,2.9447122986247053e-06
242,48.94413106619482,2.913517745759671e-06
243,49.17533383333477,2.8817718345007496e-06
244,49.41582061993291,2.8509650870098095e-06
245,49.649324817751236,2.8422718807709236e-06
246,49.89207216621415,2.819629888317553e-06
247,50.13456930714151,2.795480589101941e-06
248,50.377388225689046,2.770127566556844e-06
249,50.619883859104405,2.7436405131433487e-06
250,50.86263868390165,2.7163900265452694e-06
251,51.00135497074889,2.7009001577315865e-06
252,51.00645510698026,2.7683543224153233e-06
253,51.105205120039926,2.7558010207846293e-06
254,51.347969607608135,2.7279616923006225e-06
255,51.59069000317147,2.699837366078381e-06
256,51.832898802496175,2.6712621914130598e-06
257,51.8721498856514,2.673240246196877e-06
258,51.91102576430809,2.670654993609472e-06
259,51.949742286156955,2.6680072694706946e-06
260,51.988516602315165,2.6652923270352924e-06
261,52.02734884339748,2.66251338320849e-06
262,52.066239138658105,2.6596827646256544e-06
263,52.1049686430697,2.6567891891963136e-06
264,52.14375580845474,2.653831225809699e-06
265,52.18260076270686,2.6508212286893824e-06
266,52.225903089801974,2.648044596776993e-06
267,52.23112568009028,2.691109277347552e-06
268,52.28801437881661,2.685125537593161e-06
269,52.354252605744634,2.679711759126508e-06
270,52.4206588658379,2.674156663150559e-06
271,52.487233798564496,2.6684790758245255e-06
272,52.553532525976394,2.662665142203854e-06
273,52.61999895321378,2.656727848292269e-06
274,52.686409831082976,2.6506841074190322e-06
275,52.75276409969964,2.644520958878594e-06
276,52.819060696458294,2.6382506798288392e-06
277,52.89432335145491,2.6318138860531968e-06
278,52.899612783845704,2.6628930961406916e-06
279,52.92570847645171,2.657893558488449e-06
280,52.96595392840032,2.6540056907618418e-06
281,53.006260633228216,2.650079653901005e-06
282,53.04662873107417,2.6461222260405156e-06
283,53.086831057022884,2.6421278656384395e-06
284,53.12709436645795,2.638124007406268e-06
285,53.167190801933764,2.634070425849371e-06
286,53.20757614637007,2.6300092615506483e-06
287,53.24779420323372,2.625914445479203e-06
288,53.280745137951456,2.6209341113476655e-06
289,53.286073211902114,2.644477084714048e-06
290,53.313966130926836,2.6412345246114537e-06
291,53.34011380684603,2.638574393832879e-06
292,53.36605744210439,2.635900306298754e-06
293,53.3920263268282,2.6332108285836522e-06
294,53.41802049775284,2.630515274452674e-06
295,53.444039991613735,2.6278205521484024e-06
296,53.47008484514626,2.625103477256243e-06
297,53.4961550964464,2.6224000259643958e-06
298,53.52225078088898,2.6196811174456576e-06
299,53.556930425060784,2.6169447595289053e-06
300,53.562286118590514,2.6344369041255017e-06
301,53.56595449529937,2.6321175715577357e-06
302,53.58354860255031,2.630261617279104e-06
303,53.60115427192848,2.6284138121434232e-06
304,53.61877151431845,2.6265519500728926e-06
305,53.63640034060479,2.6246923352284184e-06
306,53.654040763032626,2.6228280245749665e-06
307,53.671692792486525,2.620962486387198e-06
308,53.68935644121162,2.6190957205696506e-06
309,53.707031718731905,2.617227725701928e-06
310,53.719364790056815,2.615076652899268e-06
311,53.724736726075946,2.6293520201970184e-06
312,53.737525652430854,2.6275150214807094e-06
313,53.75033877244858,2.626153253412606e-06
314,53.76315800414853,2.6247814397464016e-06
315,53.77598335161241,2.6234183694639684e-06
316,53.78881481892195,2.6220581298792764e-06
317,53.80165241287999,2.620693759269986e-06
318,53.81449613484709,2.6193287369191795e-06
319,53.82734599026555,2.617953654887361e-06
320,53.84020198457765,2.616587325749038e-06
321,53.859380510070835,2.615338834482653e-06
322,53.864766449080506,2.6267221260777193e-06
323,54.37907628685795,2.5695463357179982e-06
324,54.38451419557509,2.5698032904030024e-06
325,57.05673904001712,2.2095791020709612e-06
326,59.83797969777306,2.1297458806053335e-06
327,62.776857688085116,2.1206950291497236e-06
328,65.8790084676893,2.1258374153259285e-06
329,69.11053173666157,2.13134743800945e-06
330,72.50543505005098,2.1346190544149493e-06
331,76.06398400888658,2.1340533836769615e-06
332,79.78397293127114,2.1303645324810597e-06
333,83.71660630315476,2.1250985523886577e-06
334,87.80757360875351,2.1179773928229756e-06
335,92.18163117786365,2.1120336170000353e-06
336,96.63623845336299,2.1033096680116333e-06
337,101.46014233685892,2.0992623946720937e-06
338,106.4242866399306,2.0946502755776318e-06
339,111.5970242438014,2.0918523925128233e-06
340,117.0767648107643,2.0921512868337038e-06
341,122.87838843938509,2.095787678993479e-06
342,128.89520109707965,2.1001369805882177e-06
343,135.23592270439354,2.1074856999008924e-06
344,141.8746926820883,2.1156965649062034e-06
345,148.84068899704465,2.1249905045770927e-06
346,156.1515036966099,2.1344840336560665e-06
347,163.82702686962895,2.1433444646016494e-06
348,171.8662239193235,2.1502521386675376e-06
349,180.314563604951,2.1554780580454206e-06
350,189.17347258933728,2.158148361812512e-06
351,198.43837057482506,2.1578473074885784e-06
352,208.20200492835968,2.1548383023884285e-06
353,218.43603582571842,2.148064047877726e-06
354,229.13379030720859,2.1376914279528966e-06
355,240.4194181399347,2.1242173732606246e-06
356,252.2056426662996,2.107280790095554e-06
357,264.58449409931325,2.086914036016183e-06
358,277.618213020274,2.0640441167528852e-06
359,291.24804776807804,2.0379653276980038e-06
360,305.5305419790298,2.0096217645980412e-06
361,320.53850551943304,1.979395215903358e-06
362,336.27419022309334,1.9474324275982147e-06
363,352.82952172685884,1.9134095750209245e-06
364,370.1023699553521,1.8782271383308941e-06
365,388.30032550844584,1.8422265254344592e-06
366,407.4409922282722,1.8057922167612997e-06
367,427.3846740268177,1.767486642916491e-06
368,448.4061263473524,1.7301746952485525e-06
369,470.35012873647855,1.6916707082841585e-06
370,493.5680491048299,1.6537470199925705e-06
371,517.6797241550428,1.6145462424581648e-06
372,543.0761889406126,1.576717920767326e-06
373,569.7807625687461,1.5391118351712794e-06
374,597.8027672854871,1.5020343803164921e-06
375,627.1335049819714,1.4650856251997179e-06
376,658.0907321397733,1.42925275596385e-06
377,690.3357123334891,1.393300376744861e-06
378,724.2073243871811,1.3581775572401336e-06
379,759.7076834259018,1.3236754613195154e-06
380,797.3266490999547,1.2906915664050716e-06
381,836.0370460894682,1.2576482876776477e-06
382,877.4543095192441,1.2276655254582886e-06
383,920.4476164437452,1.202776318986702e-06
384,965.6097658491213,1.186594615681042e-06
385,1012.9435778998417,1.178244095484619e-06
386,1062.4189711653833,1.1803598122167982e-06
387,1114.9666720771077,1.1875211942600985e-06
388,1169.663150329875,1.195390746678581e-06
389,1227.567266683176,1.205930565693762e-06
390,1287.4796877983747,1.216509356764222e-06
391,1350.7385764786425,1.227602356744177e-06
392,1417.1253164357606,1.2408245123891498e-06
393,1486.8005028782486,1.2566479006295637e-06
394,1559.7470617061401,1.2759255689845506e-06
395,1636.3243227533392,1.2957999896029579e-06
396,1716.758431667909,1.3182751698770607e-06
397,1801.0501733737967,1.3437000555504592e-06
398,1889.4284354616202,1.3725434026452323e-06
399,1982.1629725818273,1.4017175278875292e-06
400,2079.5755440290677,1.4310427747305978e-06
401,2181.6697859413352,1.459925695065459e-06
402,2288.7999618795393,1.4882108434613666e-06
403,2401.4002311637014,1.5179304319456505e-06
404,2519.4938820364887,1.5500064801512938e-06
405,2643.0248120877745,1.5839133906915095e-06
406,2773.0774756212168,1.6185328793233159e-06
407,2909.0636774997965,1.6549367045034592e-06
408,3052.296748769963,1.6950492611962702e-06
409,3202.0737069989013,1.7375510285101859e-06
410,3359.09764115481,1.7813106320819702e-06
411,3524.2835115126195,1.8294948384601658e-06
412,3696.609837060667,1.8778332588355266e-06
413,3878.144946356636,1.9243237329408186e-06
414,4069.061172792734,1.9723139944790576e-06
415,4269.4316093318685,2.0216894117089457e-06
416,4479.201370485286,2.0736511752227067e-06
417,4698.154374195846,2.123902731986649e-06
418,4929.792999404153,2.173192800390868e-06
419,5172.477844597715,2.2207582897587477e-06
420,5426.008487309148,2.2656314151904605e-06
421,5692.575479110518,2.3080855722953288e-06
422,5972.268493979021,2.351069615294182e-06
423,6264.997167004439,2.3909085901285617e-06
424,6573.928628579969,2.4280868849714184e-06
425,6895.678194383414,2.4639367199979252e-06
426,7233.622750000516,2.5108221189378664e-06
427,7587.77808659771,2.5765632523744298e-06
428,7963.024658639149,2.656067412068192e-06
429,8354.736788073256,2.736448397320426e-06
430,8762.140914135012,2.8219609335956436e-06
431,9190.829795034075,2.912548111029536e-06
432,9648.583185604855,3.0054123991614693e-06
433,10121.16685183849,3.0979236360212366e-06
434,10615.093658819282,3.1941981109047883e-06
435,11139.649050764798,3.299636793967007e-06
436,11685.607345430528,3.4105701308966478e-06
437,12263.53055737043,3.528483836108181e-06
438,12861.441279565825,3.6491587366047976e-06
439,13492.686248232816,3.7747127159840512e-06
440,14155.07408779709,3.902984940084479e-06
441,14850.196902025664,4.03463554311294e-06
442,15579.830853859854,4.1683908543596805e-06
443,16345.984698090622,4.299269372317224e-06
444,17148.588372754886,4.426266682134534e-06
445,17989.59575377403,4.5475701265681615e-06
