,E (eV),I (erg/s/cm**2)
0,0.12373682038306764,3.3241189508090847e-07
1,0.12988088554512012,3.7634322194360887e-07
2,0.136261450495965,4.2643180493737946e-07
3,0.142954334381579,4.842541901248761e-07
4,0.14997495382513726,5.506328005240168e-07
5,0.15734047514334634,6.271636880959902e-07
6,0.1650702891855128,7.142630700782508e-07
7,0.17316242176398977,8.13437073413021e-07
8,0.18166196898460565,9.264008662947486e-07
9,0.19059845386441798,1.0534500952522963e-06
10,0.19994241869374835,1.1964686375981414e-06
11,0.20978729928408152,1.3583063143195506e-06
12,0.22006441948402825,1.5431091794070525e-06
13,0.23088322901865302,1.7555155590222547e-06
14,0.24225145320667346,2.004951518131913e-06
15,0.25411824889290163,2.2966600030453584e-06
16,0.2666328896979398,2.640753305587289e-06
17,0.279684849685539,3.0405057631172647e-06
18,0.2934539500028684,3.4712835567306114e-06
19,0.30788252831590723,3.940009901431757e-06
20,0.32295987013277455,4.484060159512291e-06
21,0.33884748332308773,5.094393526194427e-06
22,0.3554595580724406,5.7609573778875815e-06
23,0.3728850947328217,6.51400787193647e-06
24,0.39124106698359445,7.383782527591859e-06
25,0.4104081228683404,8.364490640527242e-06
26,0.430650551826223,9.439265391905779e-06
27,0.45183780576702226,1.0582353539578126e-05
28,0.47394607742992073,1.1875750724312131e-05
29,0.49732969880299527,1.3416363600452715e-05
30,0.5215998909768427,1.5138813701301261e-05
31,0.5473920267214383,1.697603936544571e-05
32,0.5742672254830576,1.8921176752602914e-05
33,0.6024504072358395,2.1026806035056955e-05
34,0.6319281036934179,2.3213235563609705e-05
35,0.6630176148387874,2.5576042620186975e-05
36,0.6957592258008507,2.7971683131929073e-05
37,0.7297486403648201,3.0266110297742363e-05
38,0.7653351482448788,3.255105177907353e-05
39,0.8030070853681331,3.49946294261865e-05
40,0.8428571990974468,3.7785153663209285e-05
41,0.8837084382127298,4.087477289246611e-05
42,0.9273320408775417,4.439221559136964e-05
43,0.9731891205322233,4.833912764799981e-05
44,1.0204468638729816,5.26164243489114e-05
45,1.070676113370654,5.716605967934408e-05
46,1.1230461401152967,6.197158633248661e-05
47,1.178557926632987,6.687964823182897e-05
48,1.236134535194631,7.196893308401908e-05
49,1.2973139477748237,7.793088418255604e-05
50,1.3609691984709518,8.37460574005275e-05
51,1.4278969706398996,8.92861966603856e-05
52,1.497937585018665,9.579837596278092e-05
53,1.571609759071332,0.00010273054877371819
54,1.6487273123446937,0.00011003308255887712
55,1.7296916008609082,0.0001176976143474065
56,1.8147584009701614,0.00012556563563404137
57,1.9039357182686723,0.00013384272505276477
58,1.997169683692689,0.00014266755028455235
59,2.0953911437248633,0.000152171165879609
60,2.1983030844868283,0.00016238781970030327
61,2.3062554678145446,0.0001731446123091176
62,2.419677867960215,0.0001841109255940814
63,2.5385809572380396,0.00019650725663119948
64,2.662892911136729,0.00020842189678329498
65,2.7936974743190754,0.00021651632755622602
66,2.931070778862248,0.00022118711535200992
67,3.075007289965869,0.0002205526574714098
68,3.22623715637324,0.00021790023928119
69,3.3847746096507194,0.00022642918660960548
70,3.5505238819691614,0.0002456255486075082
71,3.72548960101699,0.0002665049601796186
72,3.9087104013569633,0.0002887325357610953
73,4.100009720408016,0.0003120564384973843
74,4.302022690507662,0.0003366014814149466
75,4.513443535509925,0.0003634500130630667
76,4.7340318412649784,0.0003925072360805556
77,4.9673194689297,0.00042475749950347553
78,5.211613868929474,0.0004593050522257069
79,5.466679627210687,0.0004974439448686975
80,5.734703697419032,0.0005424535365772343
81,6.015734785253603,0.0005863641302218588
82,6.312845923994953,0.0006329738228219085
83,6.623092624332553,0.0006721073702451104
84,6.945898819399489,0.0007043198308865192
85,7.288906169160725,0.0007359519508725253
86,7.648630100444126,0.0007727460954044229
87,8.024873394488845,0.000813929803694303
88,8.417127897299366,0.0008513177183711257
89,8.830790165776738,0.0008849050748606667
90,9.266389680857458,0.0009155682461815583
91,9.716637456029325,0.0009314211700884141
92,10.196076803785866,0.001002177100352538
93,10.197096411160116,0.0005522841243252218
94,10.697523203570578,0.0004997868410998572
95,11.220298094027351,0.00034819849629059155
96,11.277348208104517,0.000328740335069898
97,11.33249492093084,0.0003089520461299277
98,11.387556042994593,0.000288881899493135
99,11.442732384962467,0.00026852971857002335
100,11.497806231080576,0.00024788498818537037
101,11.552982159435048,0.0002271841377182043
102,11.60803808003817,0.000206193772188854
103,11.66318237649147,0.0001846721768547421
104,11.718299302350081,0.00016260970743790508
105,11.774386889062887,0.00014000458291194966
106,11.831239759888943,0.00011503707889092866
107,11.88910033581941,8.97407568707449e-05
108,11.946838883551488,6.410259686486453e-05
109,12.004676019575147,3.811715430914743e-05
110,12.062489073502768,1.1776908368173893e-05
111,12.084239175008497,6.075526761682817e-17
112,12.085447598260815,0.00024243946415576748
113,12.120387699144974,0.00023081984646360104
114,12.178246692732069,0.00021049621127215104
115,12.236056918033833,0.0001902806896204524
116,12.293809078272739,0.0001698289089413595
117,12.349033260616933,0.00014910045802388048
118,12.412331205118095,0.0001261551022446703
119,12.472992945152267,0.00010327096806420079
120,12.533667667749175,8.047350445190539e-05
121,12.594334262298528,5.7749653476983164e-05
122,12.654996798266383,3.508813577361163e-05
123,12.715659670295127,1.2476877748953799e-05
124,12.749027653853984,3.484415730215632e-11
125,12.75030255729707,8.477744218774472e-05
126,12.776327611809172,7.711157628877577e-05
127,12.836992402242176,6.0117202071106586e-05
128,12.897659083868033,4.326039411066534e-05
129,12.958224700964186,2.6532635019149856e-05
130,12.968023907206273,2.337592641121588e-05
131,12.977729272186895,2.0344222297269578e-05
132,12.98743557187938,1.7433061053927804e-05
133,12.99714277499061,1.4637227163798491e-05
134,13.006850855669747,1.1951818975514819e-05
135,13.01655978398424,9.372091377862992e-06
136,13.026255846745054,6.893517449582283e-06
137,13.035966364205771,4.511806925504429e-06
138,13.045677643585913,2.222756719442102e-06
139,13.055100971847107,4.477567083751782e-09
140,13.056406482681856,2.5759922728921186e-05
141,13.07197602988804,2.2308612000463006e-05
142,13.08857696836869,1.9094901989576563e-05
143,13.10517856808655,1.6099557641879372e-05
144,13.121780675297172,1.3307054049550597e-05
145,13.138383130813812,1.0702892398764313e-05
146,13.154985780892021,8.273739349034754e-06
147,13.17158846498449,6.007099801117277e-06
148,13.188191025265052,3.891413991912929e-06
149,13.204793301186402,1.9155978598628283e-06
150,13.220760709109392,3.222057953268211e-08
151,13.222082786249304,8.784983203207368e-06
152,13.231455359792385,7.745468740539904e-06
153,13.241516765637503,6.7501919665029504e-06
154,13.251579321164607,5.796072496483814e-06
155,13.261642997801719,4.881275161556905e-06
156,13.2716935585402,4.004094140572526e-06
157,13.281759363109414,3.162848177715768e-06
158,13.29182620035156,2.3558527896533296e-06
159,13.301879765229476,1.5812571234181344e-06
160,13.31194855080843,8.361094986408507e-07
161,13.321617485156088,8.573112225595902e-08
162,13.322949646843785,4.089880264152827e-06
163,13.32850586123871,3.6500250702287064e-06
164,13.335014108918516,3.22237238102112e-06
165,13.341514360526098,2.8061282176561815e-06
166,13.348020952391732,2.4009358732809085e-06
167,13.354533892678841,2.006407758724502e-06
168,13.361038794716041,1.6221073207707523e-06
169,13.367535623128502,1.2474611936177306e-06
170,13.3740387741116,8.814816860756673e-07
171,13.380548254468188,5.214880744519303e-07
172,13.386341387707589,1.4788669151116072e-07
173,13.387680021628666,2.410762227930595e-06
174,13.391459695717192,2.184563099866809e-06
175,13.39587267722983,1.9623271616559288e-06
176,13.400274084370094,1.7438873135651874e-06
177,13.404692878239471,1.529065943248717e-06
178,13.40910008549134,1.3176111056565482e-06
179,13.413510190758156,1.1091750866756663e-06
180,13.417923198121631,9.031744665460521e-07
181,13.422339110302905,6.985192514414898e-07
182,13.42674338960728,4.926846186353316e-07
183,13.431296060882639,2.7739604610509676e-07
184,13.432639190128311,2.2395220782701444e-06
185,13.434366856024889,2.1035171285594493e-06
186,13.437570128546183,1.969355412137591e-06
187,13.44078950069699,1.8366998172594883e-06
188,13.443995837222818,1.705456808407975e-06
189,13.447203704390345,1.5755288581829308e-06
190,13.45041310356014,1.4467905742107183e-06
191,13.45362403337163,1.3190817468545187e-06
192,13.45683649790653,1.1921990083001607e-06
193,13.460035883278197,1.065864314691956e-06
194,13.463382988499074,9.395527164467002e-07
195,13.464729325969746,4.667590670123269e-06
196,13.594769071714488,8.581046860739293e-07
197,14.203722526530077,6.914969485354417e-07
198,14.900167520628429,6.200209426869809e-07
199,15.632870247767363,5.96181054545665e-07
200,16.40003888027149,5.847434074675257e-07
201,17.205702739209883,5.972223294187171e-07
202,18.0498316988328,6.030483637265481e-07
203,18.937573535744082,6.432156460461296e-07
204,19.866094204935223,7.039940159397409e-07
205,20.844703082814913,7.505112700841548e-07
206,21.86671850748218,8.348057573801138e-07
207,22.943059573394503,6.861829347442258e-07
208,24.069946405098946,7.104963113859908e-07
209,25.25138369325867,5.540860625106602e-07
210,26.492370498690782,6.108426421590538e-07
211,27.792937443753218,6.794449871701099e-07
212,29.159053135810137,7.211652799485399e-07
213,30.590746097859338,7.967438871602723e-07
214,32.087032591243975,7.975894302545095e-07
215,33.6639407910427,9.01247748791725e-07
216,35.32316066582809,8.977746227668182e-07
217,37.05448115245357,9.623848759087558e-07
218,38.878737514413515,9.872304159267647e-07
219,40.784307215143464,9.911439835646748e-07
220,40.78838564600103,7.467097401468321e-07
221,42.782710122565675,1.144346989528181e-06
222,44.88931713788715,1.1490937466487787e-06
223,45.10947489386102,1.164432803790731e-06
224,45.329813954003804,1.1565939542312207e-06
225,45.55030784705782,1.1487980218559887e-06
226,45.770760567891045,1.140957580474454e-06
227,45.991310226643954,1.1329145798265873e-06
228,46.211756393609576,1.1347911979234938e-06
229,46.43223926740394,1.1429306422828549e-06
230,46.65272950596588,1.1472862401857068e-06
231,46.87319720803975,1.1451678566874658e-06
232,47.088603849464064,1.1317969883585173e-06
233,47.3249590381952,1.0938068626638563e-06
234,47.556218930243865,1.0049143824252116e-06
235,47.7875397227841,8.609320258365247e-07
236,48.0188900560288,6.248727899599899e-07
237,48.250237948410216,2.3942173345886495e-07
238,48.35580886686648,1.4693081891293762e-33
239,48.36064444834747,9.500868899803884e-07
240,48.48155079930104,9.338910083350349e-07
241,48.71279538221159,9.113698155019153e-07
242,48.94413106619482,8.947645977063732e-07
243,49.17533383333477,8.756095585777548e-07
244,49.41582061993291,8.523463257523032e-07
245,49.649324817751236,8.24262970957907e-07
246,49.89207216621415,7.707764025339195e-07
247,50.13456930714151,6.969249970383475e-07
248,50.377388225689046,5.895722832304902e-07
249,50.619883859104405,4.2873069159358557e-07
250,50.86263868390165,1.8497143024636972e-07
251,51.00135497074889,1.5496940341031576e-33
252,51.00645510698026,5.558720000022512e-07
253,51.105205120039926,5.307054080802425e-07
254,51.347969607608135,4.6481074825771327e-07
255,51.59069000317147,3.8007190621768934e-07
256,51.832898802496175,2.679237531920011e-07
257,51.8721498856514,2.332644568026106e-07
258,51.91102576430809,2.010843554823073e-07
259,51.949742286156955,1.7108724803252726e-07
260,51.988516602315165,1.4298635471693525e-07
261,52.02734884339748,1.1651117093924831e-07
262,52.066239138658105,9.140553012323749e-08
263,52.1049686430697,6.742677052580291e-08
264,52.14375580845474,4.4344717068911494e-08
265,52.18260076270686,2.1939342648889837e-08
266,52.225903089801974,1.586902357600782e-33
267,52.23112568009028,1.4848001721680073e-07
268,52.28801437881661,1.23314300708233e-07
269,52.354252605744634,1.0170482019079649e-07
270,52.4206588658379,8.305262496535266e-08
271,52.487233798564496,6.686646316716629e-08
272,52.553532525976394,5.270996823965625e-08
273,52.61999895321378,4.019464343739022e-08
274,52.686409831082976,2.89704528371547e-08
275,52.75276409969964,1.872007116215863e-08
276,52.819060696458294,9.152809098697657e-09
277,52.89432335145491,1.607212541366514e-33
278,52.899612783845704,2.8867246838748977e-08
279,52.92570847645171,2.5094372365266745e-08
280,52.96595392840032,2.160773582994827e-08
281,53.006260633228216,1.836717386590737e-08
282,53.04662873107417,1.533953487862166e-08
283,53.086831057022884,1.2493422570196248e-08
284,53.12709436645795,9.799339993041647e-09
285,53.167190801933764,7.22915375262767e-09
286,53.20757614637007,4.756140376591373e-09
287,53.24779420323372,2.3546167644972014e-09
288,53.280745137951456,1.618954102694142e-33
289,53.286073211902114,9.66754251087775e-09
290,53.313966130926836,8.563417821083239e-09
291,53.34011380684603,7.501234655635352e-09
292,53.36605744210439,6.476667993693151e-09
293,53.3920263268282,5.485292892193595e-09
294,53.41802049775284,4.522771231412152e-09
295,53.444039991613735,3.5849138511458513e-09
296,53.47008484514626,2.6676270616405634e-09
297,53.4961550964464,1.7669601747801146e-09
298,53.52225078088898,8.790109654591638e-10
299,53.556930425060784,1.627346089377356e-33
300,53.562286118590514,4.324146625246592e-09
301,53.56595449529937,3.859960354405222e-09
302,53.58354860255031,3.4058734292408605e-09
303,53.60115427192848,2.9601110287429587e-09
304,53.61877151431845,2.521789980415911e-09
305,53.63640034060479,2.0900427956473516e-09
306,53.654040763032626,1.663985656239398e-09
307,53.671692792486525,1.2427852430829854e-09
308,53.68935644121162,8.255992581711504e-10
309,53.707031718731905,4.1160847583362044e-10
310,53.719364790056815,1.632281714450691e-33
311,53.724736726075946,2.357603084644054e-09
312,53.737525652430854,2.1126167571489807e-09
313,53.75033877244858,1.869910822325556e-09
314,53.76315800414853,1.6297768241157778e-09
315,53.77598335161241,1.3919647356403852e-09
316,53.78881481892195,1.1562269399829496e-09
317,53.80165241287999,9.223117114260008e-10
318,53.81449613484709,6.899718583159589e-10
319,53.82734599026555,4.589672569376545e-10
320,53.84020198457765,2.2905620777676072e-10
321,53.859380510070835,1.6365361411440765e-33
322,53.864766449080506,4.338005953056489e-09
323,54.37907628685795,3.0076717459193214e-12
324,54.38451419557509,3.0079725131541153e-12
325,57.05673904001712,9.78279987316356e-13
326,59.83797969777306,6.021155295165591e-13
327,62.776857688085116,5.719765429343451e-13
328,65.8790084676893,6.115581178448749e-13
329,69.11053173666157,6.679751941544679e-13
330,72.50543505005098,7.330687787458269e-13
331,76.06398400888658,8.061460290682516e-13
332,79.78397293127114,8.877093244503702e-13
333,83.71660630315476,9.79345637173478e-13
334,87.80757360875351,1.081379771105439e-12
335,92.18163117786365,1.1968957204190433e-12
336,96.63623845336299,1.3244885599453005e-12
337,101.46014233685892,1.4699038190480221e-12
338,106.4242866399306,1.6312763605843446e-12
339,111.5970242438014,1.8116960403475163e-12
340,117.0767648107643,2.014685023588141e-12
341,122.87838843938509,2.244118415565028e-12
342,128.89520109707965,2.499893123009775e-12
343,135.23592270439354,2.788472640155284e-12
344,141.8746926820883,3.1117184731790426e-12
345,148.84068899704465,3.4750197720372953e-12
346,156.1515036966099,3.884157706617566e-12
347,163.82702686962895,4.343547934702108e-12
348,171.8662239193235,4.861764737942688e-12
349,180.314563604951,5.443581498749025e-12
350,189.17347258933728,6.099567810382175e-12
351,198.43837057482506,6.836151315720365e-12
352,208.20200492835968,7.669168500999154e-12
353,218.43603582571842,9.009506069404133e-12
354,229.13379030720859,1.1144197774379096e-11
355,240.4194181399347,1.3776465395694774e-11
356,252.2056426662996,1.7191690454790438e-11
357,264.58449409931325,2.207678283073672e-11
358,277.618213020274,2.8078214415076573e-11
359,291.24804776807804,3.4416717700991283e-11
360,305.5305419790298,4.25584806452182e-11
361,320.53850551943304,5.4359811809738586e-11
362,336.27419022309334,6.81779634392024e-11
363,352.82952172685884,8.491327187348193e-11
364,370.1023699553521,1.0649378290138603e-10
365,388.30032550844584,1.3127650298739606e-10
366,407.4409922282722,1.5879942056383584e-10
367,427.3846740268177,1.9394233009130822e-10
368,448.4061263473524,2.3782726861233404e-10
369,470.35012873647855,2.9285583008435215e-10
370,493.5680491048299,3.531941614827731e-10
371,517.6797241550428,4.1893932798196186e-10
372,543.0761889406126,4.701042240408069e-10
373,569.7807625687461,5.456053809688472e-10
374,597.8027672854871,6.624522341667655e-10
375,627.1335049819714,7.991484538812236e-10
376,658.0907321397733,9.643669743027973e-10
377,690.3357123334891,1.166025869868316e-09
378,724.2073243871811,1.389432636165557e-09
379,759.7076834259018,1.6446856366263483e-09
380,797.3266490999547,1.9805091733277687e-09
381,836.0370460894682,2.3608984456409496e-09
382,877.4543095192441,2.788433804037479e-09
383,920.4476164437452,3.3296533765444382e-09
384,965.6097658491213,3.976168914014305e-09
385,1012.9435778998417,4.73497046484084e-09
386,1062.4189711653833,5.608589543095231e-09
387,1114.9666720771077,6.633807083457415e-09
388,1169.663150329875,7.893684112339478e-09
389,1227.567266683176,9.377846472367484e-09
390,1287.4796877983747,1.1091845953468055e-08
391,1350.7385764786425,1.3027179657090511e-08
392,1417.1253164357606,1.5213812187463866e-08
393,1486.8005028782486,1.7707160325913554e-08
394,1559.7470617061401,2.0616425053862538e-08
395,1636.3243227533392,2.3930778142123794e-08
396,1716.758431667909,2.758937379599329e-08
397,1801.0501733737967,3.1546852667685146e-08
398,1889.4284354616202,3.602168801148322e-08
399,1982.1629725818273,4.1238458521369553e-08
400,2079.5755440290677,4.6942257506239296e-08
401,2181.6697859413352,5.3014909152747896e-08
402,2288.7999618795393,5.939409486359056e-08
403,2401.4002311637014,6.610321272517215e-08
404,2519.4938820364887,7.334304711733872e-08
405,2643.0248120877745,8.131635963317915e-08
406,2773.0774756212168,8.951887155963776e-08
407,2909.0636774997965,9.779215734579283e-08
408,3052.296748769963,1.0684159939881202e-07
409,3202.0737069989013,1.1652353666225414e-07
410,3359.09764115481,1.2654965163656568e-07
411,3524.2835115126195,1.3772455029016443e-07
412,3696.609837060667,1.492351347643587e-07
413,3878.144946356636,1.6026958925470594e-07
414,4069.061172792734,1.7154608466506357e-07
415,4269.4316093318685,1.8336859820126567e-07
416,4479.201370485286,1.9541619262437042e-07
417,4698.154374195846,2.073868853861776e-07
418,4929.792999404153,2.1904291344082214e-07
419,5172.477844597715,2.3022164297931123e-07
420,5426.008487309148,2.4092709203480963e-07
421,5692.575479110518,2.5100144578562005e-07
422,5972.268493979021,2.6057487871631276e-07
423,6264.997167004439,2.6899320312906373e-07
424,6573.928628579969,2.7601664371509915e-07
425,6895.678194383414,2.815843030687182e-07
426,7233.622750000516,2.8801194767653704e-07
427,7587.77808659771,2.9723225009696556e-07
428,7963.024658639149,3.0867814003254397e-07
429,8354.736788073256,3.1994026238042536e-07
430,8762.140914135012,3.316944763988661e-07
431,9190.829795034075,3.4416664249100413e-07
432,9648.583185604855,3.565892876289837e-07
433,10121.16685183849,3.6859960550111745e-07
434,10615.093658819282,3.809573787260796e-07
435,11139.649050764798,3.9411736983616617e-07
436,11685.607345430528,4.084288211431754e-07
437,12263.53055737043,4.2364430380017063e-07
438,12861.441279565825,4.3932300533118145e-07
439,13492.686248232816,4.556647312953283e-07
440,14155.07408779709,4.724026316776554e-07
441,14850.196902025664,4.898553887136956e-07
442,15579.830853859854,5.075920606215914e-07
443,16345.984698090622,5.257315850295636e-07
444,17148.588372754886,5.433454724820992e-07
445,17989.59575377403,5.604008105899978e-07
446,18874.150393516873,5.768178774459461e-07
