,E (eV),I (erg/s/cm**2)
0,0.12373682038306764,1.292431886768612e-07
1,0.12988088554512012,1.481979221242275e-07
2,0.136261450495965,1.6982061232592625e-07
3,0.142954334381579,1.9468239025307167e-07
4,0.14997495382513726,2.2332606977497803e-07
5,0.15734047514334634,2.562405791015111e-07
6,0.1650702891855128,2.9395881882713135e-07
7,0.17316242176398977,3.3704138202841673e-07
8,0.18166196898460565,3.861174684428639e-07
9,0.19059845386441798,4.4202791368514197e-07
10,0.19994241869374835,5.054539262186187e-07
11,0.20978729928408152,5.779768882451374e-07
12,0.22006441948402825,6.603058268851427e-07
13,0.23088322901865302,7.54556203816866e-07
14,0.24225145320667346,8.640141304651633e-07
15,0.25411824889290163,9.893952748024439e-07
16,0.2666328896979398,1.135516877113447e-06
17,0.279684849685539,1.3035619583597903e-06
18,0.2934539500028684,1.4880019360791442e-06
19,0.30788252831590723,1.6929782642095327e-06
20,0.32295987013277455,1.9294597460032926e-06
21,0.33884748332308773,2.194947437495343e-06
22,0.3554595580724406,2.488572822018956e-06
23,0.3728850947328217,2.8199638555834117e-06
24,0.39124106698359445,3.203152129923566e-06
25,0.4104081228683404,3.6428783991168283e-06
26,0.430650551826223,4.139013798804819e-06
27,0.45183780576702226,4.678073300070213e-06
28,0.47394607742992073,5.288593606575676e-06
29,0.49732969880299527,6.004087664812993e-06
30,0.5215998909768427,6.792819698291346e-06
31,0.5473920267214383,7.648944487695746e-06
32,0.5742672254830576,8.580634438948586e-06
33,0.6024504072358395,9.584328254873927e-06
34,0.6319281036934179,1.06372530414899e-05
35,0.6630176148387874,1.1776530336827183e-05
36,0.6957592258008507,1.2970352165776285e-05
37,0.7297486403648201,1.4143152330698463e-05
38,0.7653351482448788,1.5342867796609257e-05
39,0.8030070853681331,1.6661080384892904e-05
40,0.8428571990974468,1.814364943147942e-05
41,0.8837084382127298,1.9777465857895202e-05
42,0.9273320408775417,2.164763732162806e-05
43,0.9731891205322233,2.3743544507892174e-05
44,1.0204468638729816,2.6000923621323573e-05
45,1.070676113370654,2.8428745515488505e-05
46,1.1230461401152967,3.098179125964213e-05
47,1.178557926632987,3.362873731114251e-05
48,1.236134535194631,3.64060081404332e-05
49,1.2973139477748237,3.9651855893365564e-05
50,1.3609691984709518,4.2876449422299405e-05
51,1.4278969706398996,4.593570062400126e-05
52,1.497937585018665,4.9524190386766535e-05
53,1.571609759071332,5.332832443662238e-05
54,1.6487273123446937,5.728249327860271e-05
55,1.7296916008609082,6.142171315374985e-05
56,1.8147584009701614,6.586387481555141e-05
57,1.9039357182686723,7.082371062090047e-05
58,1.997169683692689,7.643673860126707e-05
59,2.0953911437248633,8.279473663796206e-05
60,2.1983030844868283,8.955887678890809e-05
61,2.3062554678145446,9.644089679306633e-05
62,2.419677867960215,0.00010336753906260327
63,2.5385809572380396,0.00011124393923164677
64,2.662892911136729,0.00011893239674884927
65,2.7936974743190754,0.0001245501509128274
66,2.931070778862248,0.0001281997715971157
67,3.075007289965869,0.0001289366932665312
68,3.22623715637324,0.00012861543539260207
69,3.3847746096507194,0.00013487932245220038
70,3.5505238819691614,0.00014772521547480418
71,3.72548960101699,0.0001617288184855449
72,3.9087104013569633,0.00017647663070393836
73,4.100009720408016,0.00019175250514267493
74,4.302022690507662,0.00020785777481666042
75,4.513443535509925,0.00022566903656622247
76,4.7340318412649784,0.0002451631209388407
77,4.9673194689297,0.00026657993258526284
78,5.211613868929474,0.0002899607537733654
79,5.466679627210687,0.0003140178984594884
80,5.734703697419032,0.00033904798711395355
81,6.015734785253603,0.00036814941665275723
82,6.312845923994953,0.0004006066397025089
83,6.623092624332553,0.0004300717327019394
84,6.945898819399489,0.0004749400357448424
85,7.288906169160725,0.0005259233253886295
86,7.648630100444126,0.0005666671136164579
87,8.024873394488845,0.0006053523949515773
88,8.417127897299366,0.0006264027597121377
89,8.830790165776738,0.0006317084650019135
90,9.266389680857458,0.000638249988460486
91,9.716637456029325,0.0006452757918062293
92,10.196076803785866,0.0006961016223428673
93,10.197096411160116,0.00042896478112854883
94,10.697523203570578,0.00038686509369073596
95,11.220298094027351,0.00026977918644748836
96,11.277348208104517,0.0002548694826405759
97,11.33249492093084,0.00023968218645660513
98,11.387556042994593,0.00022424849929263133
99,11.442732384962467,0.00020856824707016404
100,11.497806231080576,0.00019263335649543476
101,11.552982159435048,0.00017659685586143926
102,11.60803808003817,0.00016030072370423464
103,11.66318237649147,0.00014358695647875044
104,11.718299302350081,0.0001264483394466201
105,11.774386889062887,0.00010889282464492
106,11.831239759888943,8.955809158977424e-05
107,11.88910033581941,6.993592011016055e-05
108,11.946838883551488,5.0005856458558865e-05
109,12.004676019575147,2.9764044947003376e-05
110,12.062489073502768,9.20500060704167e-06
111,12.084239175008497,3.6718383985929127e-34
112,12.085447598260815,0.00019089092765125693
113,12.120387699144974,0.00018181626193347454
114,12.178246692732069,0.00016594346273816036
115,12.236056918033833,0.00015014990146525217
116,12.293809078272739,0.00013413680182625484
117,12.349033260616933,0.00011788180677722037
118,12.412331205118095,9.970247323241632e-05
119,12.472992945152267,8.159150030745647e-05
120,12.533667667749175,6.355962731712142e-05
121,12.594334262298528,4.5597481564346895e-05
122,12.654996798266383,2.769569362052694e-05
123,12.715659670295127,9.844656166167543e-06
124,12.749027653853984,3.873836706323802e-34
125,12.75030255729707,7.07436990806585e-05
126,12.776327611809172,6.435618100931277e-05
127,12.836992402242176,5.017718022372278e-05
128,12.897659083868033,3.610906558866328e-05
129,12.958224700964186,2.2145239154131613e-05
130,12.968023907206273,1.964086905875496e-05
131,12.977729272186895,1.720718454325979e-05
132,12.98743557187938,1.4841034267019378e-05
133,12.99714277499061,1.2540312614587634e-05
134,13.006850855669747,1.0302991556558622e-05
135,13.01655978398424,8.127041950457045e-06
136,13.026255846745054,6.010613891598095e-06
137,13.035966364205771,3.9517971714117275e-06
138,13.045677643585913,1.948848472844248e-06
139,13.055100971847107,3.966838156023352e-34
140,13.056406482681856,2.5123618360888125e-05
141,13.07197602988804,2.202279859942831e-05
142,13.08857696836869,1.9074019872156584e-05
143,13.10517856808655,1.62665543817113e-05
144,13.121780675297172,1.3593097599135506e-05
145,13.138383130813812,1.1046635464941546e-05
146,13.154985780892021,8.62060026663798e-06
147,13.17158846498449,6.308673715961282e-06
148,13.188191025265052,4.104949188149245e-06
149,13.204793301186402,2.0038383425052384e-06
150,13.220760709109392,4.038887867743586e-31
151,13.222082786249304,1.0081212207849514e-05
152,13.231455359792385,8.933653750728546e-06
153,13.241516765637503,7.821117383597337e-06
154,13.251579321164607,6.740801706508237e-06
155,13.261642997801719,5.691730321387725e-06
156,13.2716935585402,4.672894886234179e-06
157,13.281759363109414,3.6833386952666504e-06
158,13.29182620035156,2.72215258302276e-06
159,13.301879765229476,1.7884391793026657e-06
160,13.31194855080843,8.813350659478402e-07
161,13.321617485156088,1.3786452408577136e-26
162,13.322949646843785,5.0579667112845825e-06
163,13.32850586123871,4.507255349214365e-06
164,13.335014108918516,3.967906560191147e-06
165,13.341514360526098,3.4386602404886643e-06
166,13.348020952391732,2.919305593611022e-06
167,13.354533892678841,2.4096457098350947e-06
168,13.361038794716041,1.909485278363465e-06
169,13.367535623128502,1.4186248534228362e-06
170,13.3740387741116,9.368801402853233e-07
171,13.380548254468188,4.6406477425522606e-07
172,13.386341387707589,4.528161076065563e-21
173,13.387680021628666,2.9044086430608007e-06
174,13.391459695717192,2.596973725713775e-06
175,13.39587267722983,2.293483844673324e-06
176,13.400274084370094,1.9938472588519906e-06
177,13.404692878239471,1.69801465319321e-06
178,13.40910008549134,1.4059336325402738e-06
179,13.413510190758156,1.1175514829194262e-06
180,13.417923198121631,8.328164568308906e-07
181,13.422339110302905,5.516775141982802e-07
182,13.42674338960728,2.7408954797201116e-07
183,13.431296060882639,1.709593557778957e-17
184,13.432639190128311,1.8831044748085257e-06
185,13.434366856024889,1.686723337032472e-06
186,13.437570128546183,1.4922739171735967e-06
187,13.44078950069699,1.2996302324017373e-06
188,13.443995837222818,1.1087643959166552e-06
189,13.447203704390345,9.196629658964623e-07
190,13.45041310356014,7.323100759384989e-07
191,13.45362403337163,5.466824526926672e-07
192,13.45683649790653,3.6276661645209496e-07
193,13.460035883278197,1.8054512625166626e-07
194,13.463382988499074,2.2405548024410158e-14
195,13.464729325969746,6.172560064209261e-06
196,13.594769071714488,1.4874669017597267e-07
197,14.203722526530077,1.0873488850210262e-07
198,14.900167520628429,9.26587552402668e-08
199,15.632870247767363,8.552599666916752e-08
200,16.40003888027149,8.258995186012396e-08
201,17.205702739209883,8.440304025697295e-08
202,18.0498316988328,8.661140816718959e-08
203,18.937573535744082,9.39630711422334e-08
204,19.866094204935223,1.0480391240795173e-07
205,20.844703082814913,1.1429914521213842e-07
206,21.86671850748218,1.295490532794589e-07
207,22.943059573394503,1.0766410949104259e-07
208,24.069946405098946,1.1336092781507988e-07
209,25.25138369325867,8.842890512075377e-08
210,26.492370498690782,9.861521904039291e-08
211,27.792937443753218,1.1130060930278417e-07
212,29.159053135810137,1.193727897890185e-07
213,30.590746097859338,1.3435735921710515e-07
214,32.087032591243975,1.3555786304117817e-07
215,33.6639407910427,1.5743597000992363e-07
216,35.32316066582809,1.5912040346589816e-07
217,37.05448115245357,1.7432919633680968e-07
218,38.878737514413515,1.8878196176139942e-07
219,40.784307215143464,2.082368665355061e-07
220,40.78838564600103,1.3931309970252025e-07
221,42.782710122565675,2.2999077667160278e-07
222,44.88931713788715,2.3324018484465124e-07
223,45.10947489386102,2.428610654990379e-07
224,45.329813954003804,2.4178707777044934e-07
225,45.55030784705782,2.40724839088907e-07
226,45.770760567891045,2.3967377826449935e-07
227,45.991310226643954,2.386329426050106e-07
228,46.211756393609576,2.3993278435214584e-07
229,46.43223926740394,2.4306682302048643e-07
230,46.65272950596588,2.4616907483381067e-07
231,46.87319720803975,2.492250410837089e-07
232,47.088603849464064,2.521407336561831e-07
233,47.3249590381952,2.600205817777399e-07
234,47.556218930243865,2.563365642392273e-07
235,47.7875397227841,2.526524525326685e-07
236,48.0188900560288,2.4787041777491994e-07
237,48.250237948410216,2.009023828600914e-07
238,48.35580886686648,1.4693081891293762e-33
239,48.36064444834747,2.0631427234800956e-07
240,48.48155079930104,2.0276150669923066e-07
241,48.71279538221159,1.981750849290528e-07
242,48.94413106619482,1.9551786771731982e-07
243,49.17533383333477,1.9286254815706167e-07
244,49.41582061993291,1.902265115707918e-07
245,49.649324817751236,1.9257455484249509e-07
246,49.89207216621415,1.8647245178885428e-07
247,50.13456930714151,1.8055497119908842e-07
248,50.377388225689046,1.7478264844225324e-07
249,50.619883859104405,1.6825775268419695e-07
250,50.86263868390165,1.3895378775436872e-07
251,51.00135497074889,1.5496940341031576e-33
252,51.00645510698026,1.4455767909284036e-07
253,51.105205120039926,1.4189346799914446e-07
254,51.347969607608135,1.3556640674106002e-07
255,51.59069000317147,1.2796821995666418e-07
256,51.832898802496175,1.1638597307218333e-07
257,51.8721498856514,1.0067646982334893e-07
258,51.91102576430809,8.69262755815218e-08
259,51.949742286156955,7.483185872488576e-08
260,51.988516602315165,6.409684874859067e-08
261,52.02734884339748,5.4401454464344664e-08
262,52.066239138658105,4.5359668030446e-08
263,52.1049686430697,3.6448124921759355e-08
264,52.14375580845474,2.6884033309832352e-08
265,52.18260076270686,1.5419336381235416e-08
266,52.225903089801974,1.586902357600782e-33
267,52.23112568009028,3.0883042595149145e-08
268,52.28801437881661,2.4359811950477697e-08
269,52.354252605744634,1.919383376538055e-08
270,52.4206588658379,1.509786914035779e-08
271,52.487233798564496,1.184801312583944e-08
272,52.553532525976394,9.262568426831148e-09
273,52.61999895321378,7.187969920244989e-09
274,52.686409831082976,5.478344054463314e-09
275,52.75276409969964,3.9579724847149274e-09
276,52.819060696458294,2.3354246926031566e-09
277,52.89432335145491,1.607212541366514e-33
278,52.899612783845704,2.985000634691817e-09
279,52.92570847645171,2.5747090475131677e-09
280,52.96595392840032,2.2169325612859965e-09
281,53.006260633228216,1.9030942539996925e-09
282,53.04662873107417,1.625364444477597e-09
283,53.086831057022884,1.3753887330226828e-09
284,53.12709436645795,1.1432652477771348e-09
285,53.167190801933764,9.157197583580563e-10
286,53.20757614637007,6.731764691948438e-10
287,53.24779420323372,3.8473740561650074e-10
288,53.280745137951456,1.618954102694142e-33
289,53.286073211902114,7.160645231171148e-10
290,53.313966130926836,6.456814563616123e-10
291,53.34011380684603,5.797110905244289e-10
292,53.36605744210439,5.170753780646853e-10
293,53.3920263268282,4.564939361839297e-10
294,53.41802049775284,3.963720445443753e-10
295,53.444039991613735,3.3464742324501125e-10
296,53.47008484514626,2.6858531201911096e-10
297,53.4961550964464,1.9448510837380857e-10
298,53.52225078088898,1.0728163452481233e-10
299,53.556930425060784,1.627346089377356e-33
300,53.562286118590514,2.7553880109116713e-10
301,53.56595449529937,2.5302781282501744e-10
302,53.58354860255031,2.307450752660907e-10
303,53.60115427192848,2.0829636112217737e-10
304,53.61877151431845,1.852942356774697e-10
305,53.63640034060479,1.6126532104410665e-10
306,53.654040763032626,1.356319832560812e-10
307,53.671692792486525,1.076813555568504e-10
308,53.68935644121162,7.653188316890704e-11
309,53.707031718731905,4.109044000152186e-11
310,53.719364790056815,1.632281714450691e-33
311,53.724736726075946,1.384829214117003e-10
312,53.737525652430854,1.277710355844591e-10
313,53.75033877244858,1.1683501252390637e-10
314,53.76315800414853,1.0551768875664154e-10
315,53.77598335161241,9.367520381663398e-11
316,53.78881481892195,8.11405133799296e-11
317,53.80165241287999,6.771889275282703e-11
318,53.81449613484709,5.318291532609082e-11
319,53.82734599026555,3.726697971223744e-11
320,53.84020198457765,1.9660519513063718e-11
321,53.859380510070835,1.6365361411440765e-33
322,53.864766449080506,1.1165165361385484e-10
323,54.37907628685795,1.9743829268071229e-13
324,54.38451419557509,1.974580365139323e-13
325,57.05673904001712,3.0560183936107514e-14
326,59.83797969777306,7.169236078945815e-15
327,62.776857688085116,4.567358608590344e-15
328,65.8790084676893,4.707031305144767e-15
329,69.11053173666157,5.2188278927700086e-15
330,72.50543505005098,5.834751164888674e-15
331,76.06398400888658,6.532424818854406e-15
332,79.78397293127114,7.43635272905375e-15
333,83.71660630315476,8.50579148391895e-15
334,87.80757360875351,9.731440747279788e-15
335,92.18163117786365,1.1183898602325861e-14
336,96.63623845336299,1.285159419178861e-14
337,101.46014233685892,1.4868161522406566e-14
338,106.4242866399306,1.7346683747704404e-14
339,111.5970242438014,2.0368524287657078e-14
340,117.0767648107643,2.4532805362732438e-14
341,122.87838843938509,3.014450162569268e-14
342,128.89520109707965,3.77594148531056e-14
343,135.23592270439354,4.89353014904674e-14
344,141.8746926820883,6.392884167373631e-14
345,148.84068899704465,8.447295976479765e-14
346,156.1515036966099,1.1436014215834482e-13
347,163.82702686962895,1.5558527677495044e-13
348,171.8662239193235,2.107787246873244e-13
349,180.314563604951,2.824385976937971e-13
350,189.17347258933728,3.749959026874647e-13
351,198.43837057482506,5.000448795924366e-13
352,208.20200492835968,6.629726199049933e-13
353,218.43603582571842,8.699609472739537e-13
354,229.13379030720859,1.1432541705395741e-12
355,240.4194181399347,1.5006769856759188e-12
356,252.2056426662996,1.948153312019879e-12
357,264.58449409931325,2.502627958312783e-12
358,277.618213020274,3.183238911557587e-12
359,291.24804776807804,3.903648865288819e-12
360,305.5305419790298,4.827031177141044e-12
361,320.53850551943304,6.167603538945424e-12
362,336.27419022309334,7.737443430767e-12
363,352.82952172685884,9.63890789372969e-12
364,370.1023699553521,1.209420466576204e-11
365,388.30032550844584,1.4911417303731926e-11
366,407.4409922282722,1.8047090875567452e-11
367,427.3846740268177,2.2039547445189855e-11
368,448.4061263473524,2.7032768902569528e-11
369,470.35012873647855,3.3307924806153077e-11
370,493.5680491048299,4.019390288123949e-11
371,517.6797241550428,4.7743451755596696e-11
372,543.0761889406126,5.359426424311971e-11
373,569.7807625687461,6.22110204207634e-11
374,597.8027672854871,7.559323173138236e-11
375,627.1335049819714,9.127607328162129e-11
376,658.0907321397733,1.1025593085673286e-10
377,690.3357123334891,1.3355401758505074e-10
378,724.2073243871811,1.5939210095848085e-10
379,759.7076834259018,1.8889375811832166e-10
380,797.3266490999547,2.2801352087864498e-10
381,836.0370460894682,2.72588573896911e-10
382,877.4543095192441,3.22733542626371e-10
383,920.4476164437452,3.866737889001898e-10
384,965.6097658491213,4.635983026587235e-10
385,1012.9435778998417,5.550471014862461e-10
386,1062.4189711653833,6.61253328812445e-10
387,1114.9666720771077,7.862059749721354e-10
388,1169.663150329875,9.432856461945192e-10
389,1227.567266683176,1.1316958627323373e-09
390,1287.4796877983747,1.3555301969807869e-09
391,1350.7385764786425,1.6160426540468086e-09
392,1417.1253164357606,1.920450382930808e-09
393,1486.8005028782486,2.276508844529711e-09
394,1559.7470617061401,2.7096366003008186e-09
395,1636.3243227533392,3.2284360496721834e-09
396,1716.758431667909,3.837802185047571e-09
397,1801.0501733737967,4.535400079300931e-09
398,1889.4284354616202,5.335642638139396e-09
399,1982.1629725818273,6.345634126489554e-09
400,2079.5755440290677,7.533791055520599e-09
401,2181.6697859413352,8.904573502458651e-09
402,2288.7999618795393,1.0464760179688131e-08
403,2401.4002311637014,1.2213684909990792e-08
404,2519.4938820364887,1.4178907325611809e-08
405,2643.0248120877745,1.6553956774020398e-08
406,2773.0774756212168,1.927688153339679e-08
407,2909.0636774997965,2.2120945710023372e-08
408,3052.296748769963,2.5413717923026567e-08
409,3202.0737069989013,2.9189346208187237e-08
410,3359.09764115481,3.329333506730862e-08
411,3524.2835115126195,3.819506797350838e-08
412,3696.609837060667,4.386701305504376e-08
413,3878.144946356636,4.959321373354362e-08
414,4069.061172792734,5.5668110143519087e-08
415,4269.4316093318685,6.2488583142501e-08
416,4479.201370485286,6.997987746386785e-08
417,4698.154374195846,7.802658705666951e-08
418,4929.792999404153,8.642794436178795e-08
419,5172.477844597715,9.510647448269213e-08
420,5426.008487309148,1.039280499915072e-07
421,5692.575479110518,1.1278053053935049e-07
422,5972.268493979021,1.2147782821903696e-07
423,6264.997167004439,1.2964028203209265e-07
424,6573.928628579969,1.3664816616177208e-07
425,6895.678194383414,1.427188410578455e-07
426,7233.622750000516,1.488596346259245e-07
427,7587.77808659771,1.5663678251300689e-07
428,7963.024658639149,1.6587134861773333e-07
429,8354.736788073256,1.7480146259424087e-07
430,8762.140914135012,1.8386984548548613e-07
431,9190.829795034075,1.931991215926421e-07
432,9648.583185604855,2.023184226869276e-07
433,10121.16685183849,2.109457084489739e-07
434,10615.093658819282,2.1954512695140165e-07
435,11139.649050764798,2.2866755446880784e-07
436,11685.607345430528,2.382604949738398e-07
437,12263.53055737043,2.4835656360478376e-07
438,12861.441279565825,2.586955049009915e-07
439,13492.686248232816,2.6941625467937866e-07
440,14155.07408779709,2.8050668071431505e-07
441,14850.196902025664,2.9213133536720306e-07
442,15579.830853859854,3.0427145696731443e-07
443,16345.984698090622,3.1645960455135467e-07
444,17148.588372754886,3.2854134093988136e-07
445,17989.59575377403,3.403844530443483e-07
