,E (eV),I (erg/s/cm**2)
0,0.010734900437064,1.4368392410629189e-05
1,0.011265522892127998,1.4243388396859356e-05
2,0.011809751051167999,1.408460431710743e-05
3,0.012394796322136,1.391611740690885e-05
4,0.013007053001056,1.3734029175211915e-05
5,0.013646521087927998,1.3538463644801693e-05
6,0.014313200582752,1.3334390051911485e-05
7,0.015007091485528,1.3118997182564516e-05
8,0.015755405204207998,1.2911442644440733e-05
9,0.016530930330839997,1.2703119152319118e-05
10,0.017333666865423997,1.2482542070552314e-05
11,0.018190826215912,1.2281763388256647e-05
12,0.019075196974352,1.2079000317592865e-05
13,0.020013990548696,1.1882901483774281e-05
14,0.020993601234968,1.168629001393077e-05
15,0.022027634737144,1.1505566049737814e-05
16,0.023116091055223997,1.1343606949985501e-05
17,0.024245364485232,1.1183165079578804e-05
18,0.025442666435119998,1.1031913402585806e-05
19,0.026694391200912,1.0901431650349947e-05
20,0.028000538782607998,1.0771206215828844e-05
21,0.029374714884183997,1.0666103954010253e-05
22,0.03081691950564,1.0562399030318214e-05
23,0.032340758350952,1.0485251829272772e-05
24,0.033919020012168,1.0409477163422008e-05
25,0.035592521601215996,1.0363930505752105e-05
26,0.037334051710144,1.0324249370553532e-05
27,0.039170821746904,1.0301346642849114e-05
28,0.04108922600752,1.0291472246765834e-05
29,0.043116475899943996,1.0298768593488239e-05
30,0.045238965720199996,1.0317761249740187e-05
31,0.047443089764311996,1.0343299903888974e-05
32,0.049769665144208,1.0384749213319523e-05
33,0.052232297563863994,1.0439921801618262e-05
34,0.054790169911352,1.0501675118677823e-05
35,0.05748409929859999,1.0576114044107178e-05
36,0.060300480021632,1.0660037515129418e-05
37,0.063252917784424,1.0753377734016561e-05
38,0.066368623994928,1.0859573474272512e-05
39,0.069647598653144,1.0977075265553074e-05
40,0.07306263035112,1.1104608135055074e-05
41,0.07662732479283199,1.1243592987878582e-05
42,0.08040971049816,1.141254788155086e-05
43,0.084341758947224,1.160158684415491e-05
44,0.088491498659904,1.1825541105754336e-05
45,0.09287253534017599,1.2094939911492326e-05
46,0.097389629060208,1.239912337859467e-05
47,0.10221965397168799,1.2771789713288048e-05
48,0.10725376444280799,1.3218273612021979e-05
49,0.112505566177544,1.3752710119014428e-05
50,0.11796145347192,1.4387380522555294e-05
51,0.12373027195774398,1.5147378643012475e-05
52,0.129880050154896,1.605021546313123e-05
53,0.13626112531964,1.7083051167048604e-05
54,0.14295513167583201,1.8265434041612902e-05
55,0.14997567492744798,1.9613600926795246e-05
56,0.157336360778464,2.1126003580231964e-05
57,0.165064400636832,2.2825720844213654e-05
58,0.173159794502552,2.4713364163747733e-05
59,0.18166335948755197,2.680465773971727e-05
60,0.190602306999784,2.9131334823624358e-05
61,0.19993581992731999,3.169390060209383e-05
62,0.209786349605944,3.4536671009479496e-05
63,0.220058656107824,3.767207532726752e-05
64,0.23088879647271998,4.113267943954065e-05
65,0.24224955929268,4.495263587985546e-05
66,0.254113733159752,4.9130853238293284e-05
67,0.266630980817672,5.3722211831309416e-05
68,0.279678850930656,5.867115747891731e-05
69,0.293447823354368,6.395816132409284e-05
70,0.307883475272904,6.951809908688897e-05
71,0.322958595278312,7.536545305845056e-05
72,0.33885005752228,8.14728626819086e-05
73,0.355462622076976,8.780016065462771e-05
74,0.37289152887023197,9.432591059590675e-05
75,0.391245623533856,0.00010104915009397223
76,0.410402454732064,0.00010789236361804597
77,0.43064774224835195,0.00011488965820235552
78,0.45183182333898403,0.0001219141256847842
79,0.47394109229998393,0.0001289597558248164
80,0.497329297434728,0.0001360943931782966
81,0.521601873327912,0.00014278414201201328
82,0.5473982880664079,0.00014859822772413125
83,0.574269553419008,0.00015353710799077675
84,0.602446966353304,0.00015806852856632396
85,0.631930526869296,0.0001621752811096365
86,0.6630195604544559,0.00016584254348693178
87,0.695754884220712,0.0001688089354438511
88,0.72974193275276,0.0001707800214286374
89,0.765334454353976,0.00017231921993215646
90,0.80300864866352,0.00017387225538777228
91,0.8428597556092239,0.00017561180801450746
92,0.8837040789451759,0.0001773014975057334
93,0.9273375715962079,0.00017881426851480635
94,0.9731887939953279,0.0001798784608519063
95,1.020441403903976,0.0001804266458432697
96,1.070673662983368,0.00018075220489588098
97,1.123042017586992,0.00018075496068499966
98,1.178553289809072,0.00018045039195029348
99,1.236132629035504,0.00017976370536536735
100,1.297317479815576,0.00017935847937228193
101,1.360964963015304,0.00017860532197616988
102,1.4278914208732478,0.00017793000885971155
103,1.497933584941696,0.00017741839240062855
104,1.571608471971736,0.00017668933336785524
105,1.648725602107704,0.0001754901584196167
106,1.7296931464688798,0.00017412244120024767
107,1.8147560077268319,0.0001727598763462281
108,1.903941397289512,0.00017083673812829964
109,1.9971676809330638,0.0001685212439017732
110,2.095387257935808,0.00016592161140188723
111,2.1983008028102717,0.00016304937737283547
112,2.306262063859832,0.0001601249866296395
113,2.419679212203768,0.00015704470158433719
114,2.5385794592500317,0.0001541941163902879
115,2.662894776478744,0.00015114546619446494
116,2.7937000145040076,0.00014736479275670783
117,2.93107680754968,0.0001435676142149449
118,3.0750115499117836,0.00013949890732980645
119,3.226238949605024,0.00013626225668130328
120,3.384772612333376,0.00013524446426523378
121,3.5505172981690083,0.00013507040703129343
122,3.725486651300368,0.0001344818574947634
123,3.9087146667451598,0.0001334948545320336
124,4.10001086464772,0.00013217966239381583
125,4.302028357283368,0.00013052256046961513
126,4.513447391366432,0.0001286672622130109
127,4.73403666992932,0.00012641130439334
128,4.967320070301816,0.00012381096346417915
129,5.211610485190896,0.00012073107943159756
130,5.466676617628968,0.00011677313926391976
131,5.734708985956168,0.0001119737832864553
132,6.0157348015804475,0.00010667636594848379
133,6.312842559304359,0.00010110723208496719
134,6.6230934270690875,9.514864240378393e-05
135,6.9459023596036635,8.891691369812247e-05
136,7.288902156838623,8.261049017839519e-05
137,7.648623364260087,7.64616068475198e-05
138,8.024875502012392,7.122527050352439e-05
139,8.41712794764047,6.58831012968013e-05
140,8.830795771326777,5.967588532573169e-05
141,9.266382384118415,5.344051966485564e-05
142,9.716635945796183,4.688464977436129e-05
143,10.196063546387911,2.950949413171194e-05
144,10.196083938617031,4.1793582370222004e-05
145,10.697525568241927,2.48044175542033e-05
146,11.220297532111775,1.9501348749638436e-05
147,11.277346248883143,1.8755418641539972e-05
148,11.332490167097871,1.816547001121556e-05
149,11.387552451088743,1.759765376071291e-05
150,11.4427371864154,1.7051038331888465e-05
151,11.497799470406273,1.652445949956416e-05
152,11.552984205732928,1.6023533698010006e-05
153,11.608032884019822,1.5540585224448448e-05
154,11.66317680223455,1.5073222188941719e-05
155,11.718293509041327,1.4608291905925578e-05
156,11.774389826534374,1.4146184634867223e-05
157,11.831234457746103,1.3519645600846661e-05
158,11.889099516756032,1.2982365150543454e-05
159,11.946842124430175,1.2502610166769422e-05
160,12.00467997203215,1.204148619993962e-05
161,12.062490608226176,1.1598107268643906e-05
162,12.084220438593553,1.154057019281757e-05
163,12.084244607766095,1.140840703452983e-05
164,12.120382878644056,1.1293627748757319e-05
165,12.178247937653984,1.0870785758715099e-05
166,12.236058573848007,1.0478613008997488e-05
167,12.293814787226127,1.0101701685888085e-05
168,12.349026733960736,9.73720559230887e-06
169,12.412334074561063,9.238931363160108e-06
170,12.47298830288607,8.817799486109008e-06
171,12.53366974261903,8.446763394106115e-06
172,12.594337576648016,8.082502140644022e-06
173,12.654991804973022,7.724750015087357e-06
174,12.715659639002007,7.37340345195065e-06
175,12.749008076606534,7.224694362382818e-06
176,12.749033573695785,7.182096588293794e-06
177,12.776327473030992,7.091878466660576e-06
178,12.836995307059976,6.796541202534111e-06
179,12.897663141088959,6.507068608823819e-06
180,12.958222129486135,6.225031265833063e-06
181,12.968018236348854,6.150181014594316e-06
182,12.97773270898772,6.101119461218886e-06
183,12.987433575922607,6.053589195113452e-06
184,12.99714804856147,6.007606582458136e-06
185,13.00684891549636,5.963123097500879e-06
186,13.016563388135223,5.920036153656599e-06
187,13.026250649366135,5.878290878382473e-06
188,13.035965122004999,5.837915112649041e-06
189,13.045679594643863,5.798820387782068e-06
190,13.055081687122291,5.783641488234302e-06
191,13.05510779646822,5.759852014013039e-06
192,13.071979420429471,5.7212208804113504e-06
193,13.088578379280191,5.662467384053115e-06
194,13.105177338130911,5.606931184143103e-06
195,13.121776296981631,5.554465659116079e-06
196,13.138388861536328,5.504889156974192e-06
197,13.154987820387047,5.458041833845235e-06
198,13.171586779237767,5.413780254078544e-06
199,13.188185738088487,5.371954416180493e-06
200,13.204798302643184,5.3324591278868255e-06
201,13.220744572744477,5.310698136991809e-06
202,13.220771014069586,5.294640049126673e-06
203,13.231451876732168,5.288062366649435e-06
204,13.241520097674407,5.267221096437659e-06
205,13.25157471291267,5.247061404262106e-06
206,13.261642933854912,5.227595740154484e-06
207,13.271697549093174,5.208815004201173e-06
208,13.28175216433144,5.190685877069668e-06
209,13.29182038527368,5.17321521094116e-06
210,13.301875000511943,5.1563535348597085e-06
211,13.311943221454182,5.1400319886434015e-06
212,13.321603555636356,5.136678376576145e-06
213,13.321630198325881,5.1245451779059006e-06
214,13.328501363192975,5.125041914430227e-06
215,13.33501849539748,5.115432707792828e-06
216,13.341508416194031,5.106003939388709e-06
217,13.348025548398535,5.096817316004685e-06
218,13.354529074899064,5.087816995136197e-06
219,13.361032601399591,5.079049076242485e-06
220,13.36753612790012,5.070473297529549e-06
221,13.374039654400647,5.062089957770557e-06
222,13.380543180901174,5.053899350764548e-06
223,13.386325824142808,5.055880109995628e-06
224,13.386352597447093,5.043687752557714e-06
225,13.391454955489928,5.048865442457669e-06
226,13.395876809282127,5.043653627238867e-06
227,13.400271451666375,5.0385084733284555e-06
228,13.404693305458576,5.033450538577844e-06
229,13.4091015535468,5.028464555496614e-06
230,13.413509801635023,5.0235964789937354e-06
231,13.417918049723248,5.018764886398248e-06
232,13.422339903515448,5.014015684936336e-06
233,13.426748151603672,5.009379581824392e-06
234,13.43127902518069,5.011641362962427e-06
235,13.43130588828262,5.003489088035209e-06
236,13.434367345830232,5.0082217859126165e-06
237,13.437564686264592,5.004963202554722e-06
238,13.440789238106902,5.001753467622439e-06
239,13.444000184245239,4.998577407872284e-06
240,13.447197524679599,4.995435065585625e-06
241,13.450408470817935,4.992336582247675e-06
242,13.45361941695627,4.989276930619667e-06
243,13.456830363094607,4.986297027820033e-06
244,13.460041309232944,4.983274235553584e-06
245,13.463374849566955,4.986799302766488e-06
246,13.463401775255123,4.978627472267869e-06
247,13.594764990003295,4.890887278565278e-06
248,14.203715482857126,4.721538475899271e-06
249,14.900164257980615,4.554631900261093e-06
250,15.632872234200144,4.411895650095904e-06
251,16.40004345859088,4.281574587776021e-06
252,17.20570521952972,4.165158590207828e-06
253,18.04983030560871,4.053597023538357e-06
254,18.93757527863476,3.9456882499842246e-06
255,19.86609654647688,3.842157790418185e-06
256,20.844700410654657,3.73817053229982e-06
257,21.866720076219845,3.6324275938326645e-06
258,22.94305371205723,3.5254001793752623e-06
259,24.06994614386943,3.4169781325117887e-06
260,25.251383842921417,3.3054083893052203e-06
261,26.49237370827635,3.211065435843241e-06
262,27.792929345638214,3.1136637303080742e-06
263,29.159050870460426,3.011541102755451e-06
264,30.590738282742972,2.9028606578995203e-06
265,32.087025577503574,2.786480009901838e-06
266,33.66394027402595,2.6636071643019833e-06
267,35.32315587389915,2.540516398289962e-06
268,37.05448170484515,2.4117065135353663e-06
269,38.87873449394723,2.2799938523045133e-06
270,40.78426779125562,1.8130143546165549e-06
271,40.7843493601721,2.1488538471363777e-06
272,42.782700770004766,1.6847576823749529e-06
273,44.88931273372077,1.5590262710608658e-06
274,45.109466629756426,1.5581330610597926e-06
275,45.32981100564775,1.546378297769237e-06
276,45.5503050442828,1.5338451595878939e-06
277,45.77075826580593,1.5207549070801642e-06
278,45.99130672725689,1.5071767023423459e-06
279,46.21175994878002,1.493226413198595e-06
280,46.432240381711104,1.4790185280387994e-06
281,46.65272081464218,1.4646505808270487e-06
282,46.873187641869286,1.4501939661864805e-06
283,47.088606752921294,1.4350962204170162e-06
284,47.32495143668839,1.4368233329436088e-06
285,47.55622119287244,1.4252880177800477e-06
286,47.787531766168414,1.412946141367766e-06
287,48.018883156576315,1.3999767655681063e-06
288,48.25023454698422,1.3864924976377567e-06
289,48.3557528481015,1.4249334311400376e-06
290,48.355849560166504,1.3804162052440134e-06
291,48.481545120280195,1.41716898805278e-06
292,48.7127876650563,1.4028318115845987e-06
293,48.94412544976022,1.3883267863661667e-06
294,49.175327177424386,1.3737164826876613e-06
295,49.41582160090417,1.3593233830352131e-06
296,49.649322692540274,1.3636631045326617e-06
297,49.89207566288007,1.3523448482328926e-06
298,50.134570124844316,1.3401225862350824e-06
299,50.37739112370399,1.3272066611447915e-06
300,50.619885585668236,1.3137091135111532e-06
301,50.86263855600803,1.299800458589576e-06
302,51.001297707061994,1.314294034620452e-06
303,51.0013997090247,1.2921360191220032e-06
304,51.105201046492155,1.3078253213153275e-06
305,51.347967622535926,1.2933415256732617e-06
306,51.590693381467766,1.2787378311809549e-06
307,51.832902123648516,1.264063606784819e-06
308,51.8721409739153,1.2799593155096497e-06
309,51.91102607587871,1.2785181125209744e-06
310,51.94973430369043,1.2770405519055405e-06
311,51.98851056002203,1.2755357625623084e-06
312,52.02734123916953,1.2740017647095399e-06
313,52.066239946836916,1.2724404046801422e-06
314,52.10496178035261,1.270847225728623e-06
315,52.14375164238819,1.2692281624197666e-06
316,52.18259592723967,1.267584406202152e-06
317,52.225850657500565,1.2798354664367066e-06
318,52.22595510848999,1.2660319619777348e-06
319,52.288012921645716,1.2768958916975804e-06
320,52.35424548860089,1.273907947642385e-06
321,52.420654929707744,1.2708600761500472e-06
322,52.48722763926231,1.2677548917343593e-06
323,52.55352823473736,1.2645832822877346e-06
324,52.61999209866011,1.2613619730837043e-06
325,52.686401539766976,1.25808716403082e-06
326,52.752756558057925,1.2547635276896135e-06
327,52.819057153532974,1.2513925510254175e-06
328,52.894271013032856,1.2578032903903413e-06
329,52.89437680282356,1.2481625209024174e-06
330,52.92569866129686,1.255509584615047e-06
331,52.965944333657866,1.2534048492097252e-06
332,53.00625803453875,1.2512890172224741e-06
333,53.046626158235554,1.2491617380686969e-06
334,53.08683101348463,1.2470178701289046e-06
335,53.127090291549614,1.2448641391572163e-06
336,53.167186301166886,1.242695432603223e-06
337,53.20756803056765,1.2405222323794636e-06
338,53.247786491520706,1.2383356501482272e-06
339,53.28068622525324,1.2430315856761315e-06
340,53.28079278784792,1.2359106672548844e-06
341,53.31396463565997,1.2418024518410038e-06
342,53.34011479870185,1.2403758759673413e-06
343,53.36606087618408,1.2389409444189704e-06
344,53.39202055937028,1.2375027242457477e-06
345,53.41802105966842,1.2360618406035234e-06
346,53.444035165670535,1.2346176579352396e-06
347,53.4700764830806,1.2331721110703e-06
348,53.49615861760259,1.2317238843634055e-06
349,53.52225435782855,1.2302739717151372e-06
350,53.55686813406628,1.2345033076683385e-06
351,53.556975249052535,1.2289727953029211e-06
352,53.56595587899947,1.2333065189584526e-06
353,53.58354805424043,1.2323146058055086e-06
354,53.60115383518538,1.2313237164602227e-06
355,53.6187732218343,1.2303305930452532e-06
356,53.63639260848322,1.2293365510235077e-06
357,53.65403920654009,1.2283405830314218e-06
358,53.67168580459697,1.2273453245005443e-06
359,53.68935961406179,1.2263497676168564e-06
360,53.70703342352662,1.225353289097104e-06
361,53.71930647192786,1.2286171125730546e-06
362,53.71941391072988,1.224212405273054e-06
363,53.73752380613683,1.2280083428963306e-06
364,53.75034037928222,1.2272804626180566e-06
365,53.76315695242761,1.2265504618160152e-06
366,53.77597352557301,1.2258216074126066e-06
367,53.78881731012635,1.2250912516648017e-06
368,53.80164748897572,1.2243617322718186e-06
369,53.814491273529065,1.2236320353383082e-06
370,53.82734866378638,1.222900523822268e-06
371,53.84019244833972,1.2221698502757457e-06
372,53.85932263140612,1.2251096387858818e-06
373,53.859430350485646,1.221511706003751e-06
374,54.37901918643951,1.1949618337493613e-06
375,54.379127944994806,1.1949642236843883e-06
376,57.05673053100986,1.0530425415742316e-06
377,59.837981326375825,1.0280091611627002e-06
378,62.77685420230376,1.030620468345479e-06
379,65.87900913164766,1.0385114105389954e-06
380,69.11052709439538,1.0457738908785446e-06
381,72.50543595619087,1.0519817142961807e-06
382,76.06398061970572,1.0564635496484899e-06
383,79.78397056659978,1.0603730255460524e-06
384,83.71660406093474,1.0635453605216415e-06
385,87.80756713243842,1.065624634537074e-06
386,92.18162408657074,1.0674500232640005e-06
387,96.63622680824096,1.0673543550966599e-06
388,101.46014275863574,1.0676089535853999e-06
389,106.42427909420718,1.0661637467348075e-06
390,111.59701808313864,1.0630516900360238e-06
391,117.07675617658458,1.0593991526579183e-06
392,122.87837801469472,1.055144341829115e-06
393,128.89518766688926,1.0488455083457855e-06
394,135.23590831364044,1.0412688575677316e-06
395,141.87468911739384,1.0324634530248525e-06
396,148.8406734960661,1.0225544325647084e-06
397,156.15149444201006,1.010624902165232e-06
398,163.8270162830307,9.980772248297014e-07
399,171.8662185913298,9.838653528872339e-07
400,180.31455802389124,9.686732330379633e-07
401,189.17346317963242,9.51885680670251e-07
402,198.43836254201744,9.345909681953744e-07
403,208.20199258934673,9.166794888671278e-07
404,218.43602624594226,8.973568983094801e-07
405,229.13378311115176,8.779473231285705e-07
406,240.41940162805233,8.583642577660829e-07
407,252.20562841704583,8.376048494979972e-07
408,264.5844788541219,8.168123933253364e-07
409,277.61819903497087,7.962293193539476e-07
410,291.2480259241203,7.753198758116297e-07
411,305.5305184329985,7.542967100705919e-07
412,320.538480683581,7.334948492957566e-07
413,336.2741712227277,7.127943190530005e-07
414,352.82949658079673,6.923523530708507e-07
415,370.102345949448,6.720423991715326e-07
416,388.3003015542434,6.521108696156053e-07
417,407.44096917612796,6.327538904093655e-07
418,427.38464544667596,6.133397442007971e-07
419,448.40609755768287,5.945939669899908e-07
420,470.35009803248636,5.761005421155157e-07
421,493.56801417626673,5.584971052661165e-07
422,517.6796890142306,5.415797225659841e-07
423,543.0761504786481,5.259046868182349e-07
424,569.7807323518381,5.112525096723887e-07
425,597.8027273296162,4.975241554885426e-07
426,627.1334685785498,4.872534843607794e-07
427,658.0906901035903,4.805114762692604e-07
428,690.3356642985513,4.761572645958799e-07
429,724.2072820380669,4.746541467038306e-07
430,759.7076386005494,4.7645340272648757e-07
431,797.3266073576549,4.811491778858852e-07
432,836.036998476307,4.879969516390346e-07
433,877.4542580066884,4.977749650371705e-07
434,920.4475614685377,5.09579174481858e-07
435,965.6097093840892,5.237259476292658e-07
436,1012.9435181340659,5.398574084226291e-07
437,1062.4189055069771,5.568639921131593e-07
438,1114.9666105004128,5.745819205786615e-07
439,1169.663077928482,5.921067675489967e-07
440,1227.567198914525,6.102289700436326e-07
441,1287.4796170473537,6.286667420873082e-07
442,1350.7384941301189,6.47653210230222e-07
443,1417.1252273170392,6.669970205307642e-07
444,1486.8004183378464,6.87141431868196e-07
445,1559.7469648226431,7.075843253661366e-07
