,E (eV),I (erg/s/cm**2)
0,0.010734900437064,3.230523461032255e-06
1,0.011265522892127998,3.1913268448784047e-06
2,0.011809751051167999,3.146697968354193e-06
3,0.012394796322136,3.1041039155320057e-06
4,0.013007053001056,3.0602183573811372e-06
5,0.013646521087927998,3.0157808911985964e-06
6,0.014313200582752,2.9708812276959464e-06
7,0.015007091485528,2.9252126146039487e-06
8,0.015755405204207998,2.8843693702601165e-06
9,0.016530930330839997,2.8435095900032486e-06
10,0.017333666865423997,2.8025150360832576e-06
11,0.018190826215912,2.7664368027335866e-06
12,0.019075196974352,2.7299468088137207e-06
13,0.020013990548696,2.69767405233911e-06
14,0.020993601234968,2.6676891290341186e-06
15,0.022027634737144,2.6411264473077977e-06
16,0.023116091055223997,2.6185118704707594e-06
17,0.024245364485232,2.597617922941117e-06
18,0.025442666435119998,2.5813285813837923e-06
19,0.026694391200912,2.5671898198271063e-06
20,0.028000538782607998,2.555821758970418e-06
21,0.029374714884183997,2.5473690949901873e-06
22,0.03081691950564,2.5422795539713685e-06
23,0.032340758350952,2.5402414225236493e-06
24,0.033919020012168,2.5395001712966533e-06
25,0.035592521601215996,2.5425858938047287e-06
26,0.037334051710144,2.5478809013475337e-06
27,0.039170821746904,2.5554004899979354e-06
28,0.04108922600752,2.5669376368249102e-06
29,0.043116475899943996,2.5809151672600927e-06
30,0.045238965720199996,2.5993720383966067e-06
31,0.047443089764311996,2.620783167406218e-06
32,0.049769665144208,2.6464702378972323e-06
33,0.052232297563863994,2.680606252052881e-06
34,0.054790169911352,2.716983796968264e-06
35,0.05748409929859999,2.763239045160768e-06
36,0.060300480021632,2.8161701033310674e-06
37,0.063252917784424,2.8790991681127736e-06
38,0.066368623994928,2.9523520086834707e-06
39,0.069647598653144,3.0410752178761596e-06
40,0.07306263035112,3.141347563442507e-06
41,0.07662732479283199,3.257358995723912e-06
42,0.08040971049816,3.396155332174315e-06
43,0.084341758947224,3.5545396407459335e-06
44,0.088491498659904,3.7401836469631027e-06
45,0.09287253534017599,3.953572285763519e-06
46,0.097389629060208,4.193211891213591e-06
47,0.10221965397168799,4.472611183559029e-06
48,0.10725376444280799,4.78086967160564e-06
49,0.112505566177544,5.131200070896825e-06
50,0.11796145347192,5.516237822654007e-06
51,0.12373027195774398,5.947667663122374e-06
52,0.129880050154896,6.436661278145067e-06
53,0.13626112531964,6.972335959810624e-06
54,0.14295513167583201,7.5667981224858275e-06
55,0.14997567492744798,8.225499457730365e-06
56,0.157336360778464,8.949508644166293e-06
57,0.165064400636832,9.745193496150801e-06
58,0.173159794502552,1.061774938906047e-05
59,0.18166335948755197,1.1569720472959667e-05
60,0.190602306999784,1.2602342856055313e-05
61,0.19993581992731999,1.3705470530984533e-05
62,0.209786349605944,1.4884298044704617e-05
63,0.220058656107824,1.61212945738664e-05
64,0.23088879647271998,1.7419826548778555e-05
65,0.24224955929268,1.877749699129435e-05
66,0.254113733159752,2.0175847794167926e-05
67,0.266630980817672,2.1615270872448632e-05
68,0.279678850930656,2.3080947814637528e-05
69,0.293447823354368,2.4556082014839757e-05
70,0.307883475272904,2.603537474715348e-05
71,0.322958595278312,2.750642772883894e-05
72,0.33885005752228,2.8973162593464543e-05
73,0.355462622076976,3.0415211267528678e-05
74,0.37289152887023197,3.1827205147115216e-05
75,0.391245623533856,3.3215450045417335e-05
76,0.410402454732064,3.455498608127117e-05
77,0.43064774224835195,3.585394800274497e-05
78,0.45183182333898403,3.7109671363817695e-05
79,0.47394109229998393,3.8291902925902696e-05
80,0.497329297434728,3.9441079967361384e-05
81,0.521601873327912,4.049433709412167e-05
82,0.5473982880664079,4.139925999871846e-05
83,0.574269553419008,4.215770574655826e-05
84,0.602446966353304,4.2853320831453755e-05
85,0.631930526869296,4.3452836985552084e-05
86,0.6630195604544559,4.39990421416591e-05
87,0.695754884220712,4.443786879004336e-05
88,0.72974193275276,4.472387733068027e-05
89,0.765334454353976,4.492857394180999e-05
90,0.80300864866352,4.513944323270498e-05
91,0.8428597556092239,4.5330742334582233e-05
92,0.8837040789451759,4.545985692145656e-05
93,0.9273375715962079,4.55629801702606e-05
94,0.9731887939953279,4.5538850840872526e-05
95,1.020441403903976,4.542447777322337e-05
96,1.070673662983368,4.525311680972746e-05
97,1.123042017586992,4.504371306787672e-05
98,1.178553289809072,4.47276323747537e-05
99,1.236132629035504,4.4358741332814917e-05
100,1.297317479815576,4.403152119381409e-05
101,1.360964963015304,4.362783391776807e-05
102,1.4278914208732478,4.328719088679096e-05
103,1.497933584941696,4.298914100347837e-05
104,1.571608471971736,4.266331092049344e-05
105,1.648725602107704,4.229197594564744e-05
106,1.7296931464688798,4.19617739375562e-05
107,1.8147560077268319,4.162117927314849e-05
108,1.903941397289512,4.1219497430435946e-05
109,1.9971676809330638,4.07618723500887e-05
110,2.095387257935808,4.025158968601421e-05
111,2.1983008028102717,3.9690266303150756e-05
112,2.306262063859832,3.907470133389891e-05
113,2.419679212203768,3.841566318951096e-05
114,2.5385794592500317,3.774246181084295e-05
115,2.662894776478744,3.6952962745694575e-05
116,2.7937000145040076,3.602627767716318e-05
117,2.93107680754968,3.506362885463407e-05
118,3.0750115499117836,3.401045027812449e-05
119,3.226238949605024,3.306565408265341e-05
120,3.384772612333376,3.2427817171601104e-05
121,3.5505172981690083,3.186884843203217e-05
122,3.725486651300368,3.122061977905073e-05
123,3.9087146667451598,3.0499536162531914e-05
124,4.10001086464772,2.9737309531583917e-05
125,4.302028357283368,2.8954178414812798e-05
126,4.513447391366432,2.8196534971496727e-05
127,4.73403666992932,2.741692605818362e-05
128,4.967320070301816,2.6654902039758432e-05
129,5.211610485190896,2.5875470069073735e-05
130,5.466676617628968,2.5015696693284898e-05
131,5.734708985956168,2.4064082591304278e-05
132,6.0157348015804475,2.3104682411092543e-05
133,6.312842559304359,2.2116607588579936e-05
134,6.6230934270690875,2.1090477415832873e-05
135,6.9459023596036635,2.001210956019089e-05
136,7.288902156838623,1.8902963371760366e-05
137,7.648623364260087,1.778836288430954e-05
138,8.024875502012392,1.67956064069459e-05
139,8.41712794764047,1.5685600165122084e-05
140,8.830795771326777,1.4315235982423038e-05
141,9.266382384118415,1.2844870952758952e-05
142,9.716635945796183,1.1210391383707762e-05
143,10.196063546387911,7.255772730526984e-06
144,10.196083938617031,9.783849749818319e-06
145,10.697525568241927,6.0556453805574374e-06
146,11.220297532111775,4.691233545297708e-06
147,11.277346248883143,4.480016796134564e-06
148,11.332490167097871,4.327135324750403e-06
149,11.387552451088743,4.179512403973144e-06
150,11.4427371864154,4.037185980192631e-06
151,11.497799470406273,3.899748125598609e-06
152,11.552984205732928,3.7682195718750313e-06
153,11.608032884019822,3.6435371168123392e-06
154,11.66317680223455,3.5262166193925575e-06
155,11.718293509041327,3.40942751369813e-06
156,11.774389826534374,3.293621035773764e-06
157,11.831234457746103,3.1179069725386394e-06
158,11.889099516756032,2.9701076735269285e-06
159,11.946842124430175,2.8439357906358554e-06
160,12.00467997203215,2.7225252599435587e-06
161,12.062490608226176,2.605571704042195e-06
162,12.084220438593553,2.57285317675921e-06
163,12.084244607766095,2.55486630627337e-06
164,12.120382878644056,2.508063565649456e-06
165,12.178247937653984,2.3980426519441486e-06
166,12.236058573848007,2.2996346256368634e-06
167,12.293814787226127,2.2051177686945064e-06
168,12.349026733960736,2.1140430172956468e-06
169,12.412334074561063,1.9710474546197764e-06
170,12.47298830288607,1.8531053103182338e-06
171,12.53366974261903,1.754525818668417e-06
172,12.594337576648016,1.6579833041665568e-06
173,12.654991804973022,1.5633342080073731e-06
174,12.715659639002007,1.4706083530334261e-06
175,12.749008076606534,1.425569718923691e-06
176,12.749033573695785,1.4201491958797682e-06
177,12.776327473030992,1.3924430527169345e-06
178,12.836995307059976,1.3198345127067087e-06
179,12.897663141088959,1.2488050642581786e-06
180,12.958222129486135,1.179251653476616e-06
181,12.968018236348854,1.1640269945182936e-06
182,12.97773270898772,1.1514561686508603e-06
183,12.987433575922607,1.1394638582684553e-06
184,12.99714804856147,1.1280301147860953e-06
185,13.00684891549636,1.1171222376142123e-06
186,13.016563388135223,1.106720067103574e-06
187,13.026250649366135,1.0967935933829686e-06
188,13.035965122004999,1.0873247611987132e-06
189,13.045679594643863,1.0782924904217904e-06
190,13.055081687122291,1.0722347696909175e-06
191,13.05510779646822,1.069460126019799e-06
192,13.071979420429471,1.05831861986138e-06
193,13.088578379280191,1.0455162596944474e-06
194,13.105177338130911,1.0336974249014886e-06
195,13.121776296981631,1.0227822600175715e-06
196,13.138388861536328,1.0127035106492979e-06
197,13.154987820387047,1.0033904029547983e-06
198,13.171586779237767,9.947829722763674e-07
199,13.188185738088487,9.868238786999095e-07
200,13.204798302643184,9.794645131817974e-07
201,13.220744572744477,9.741636144131154e-07
202,13.220771014069586,9.72558691689227e-07
203,13.231451876732168,9.703893964791012e-07
204,13.241520097674407,9.666898947742978e-07
205,13.25157471291267,9.631517702654664e-07
206,13.261642933854912,9.597814200867955e-07
207,13.271697549093174,9.56557101229338e-07
208,13.28175216433144,9.534841870318945e-07
209,13.29182038527368,9.505478528439839e-07
210,13.301875000511943,9.477424277951608e-07
211,13.311943221454182,9.450620766787473e-07
212,13.321603555636356,9.435458861375658e-07
213,13.321630198325881,9.423334260869373e-07
214,13.328501363192975,9.42086438206347e-07
215,13.33501849539748,9.405413962579374e-07
216,13.341508416194031,9.390330172810505e-07
217,13.348025548398535,9.375733067893647e-07
218,13.354529074899064,9.36155405410225e-07
219,13.361032601399591,9.347762759103664e-07
220,13.36753612790012,9.33435977773485e-07
221,13.374039654400647,9.321345703564465e-07
222,13.380543180901174,9.308680469308243e-07
223,13.386325824142808,9.306398786983365e-07
224,13.386352597447093,9.294214930190737e-07
225,13.391454955489928,9.297432001471589e-07
226,13.395876809282127,9.289430564469072e-07
227,13.400271451666375,9.281606559682687e-07
228,13.404693305458576,9.273916439247453e-07
229,13.4091015535468,9.266372799970903e-07
230,13.413509801635023,9.258944466248062e-07
231,13.417918049723248,9.251713103753883e-07
232,13.422339903515448,9.244565928129229e-07
233,13.426748151603672,9.237565866564833e-07
234,13.43127902518069,9.239703620079194e-07
235,13.43130588828262,9.231559801755449e-07
236,13.434367345830232,9.233296604513365e-07
237,13.437564686264592,9.228430424513755e-07
238,13.440789238106902,9.223661237339699e-07
239,13.444000184245239,9.218920218708413e-07
240,13.447197524679599,9.214289139453093e-07
241,13.450408470817935,9.209664130656427e-07
242,13.45361941695627,9.205158500916871e-07
243,13.456830363094607,9.200690562195293e-07
244,13.460041309232944,9.196260340338338e-07
245,13.463374849566955,9.196328821304651e-07
246,13.463401775255123,9.192256310984084e-07
247,13.594764990003295,9.058881589632784e-07
248,14.203715482857126,8.899280014791161e-07
249,14.900164257980615,8.611242420145014e-07
250,15.632872234200144,8.341180838336042e-07
251,16.40004345859088,8.082767668829599e-07
252,17.20570521952972,7.862932747352856e-07
253,18.04983030560871,7.639914291974413e-07
254,18.93757527863476,7.422980665134379e-07
255,19.86609654647688,7.195368556206003e-07
256,20.844700410654657,6.967108752260157e-07
257,21.866720076219845,6.724010837488912e-07
258,22.94305371205723,6.47915152587232e-07
259,24.06994614386943,6.233498420554898e-07
260,25.251383842921417,5.98242089408671e-07
261,26.49237370827635,5.72501814545613e-07
262,27.792929345638214,5.46221236949356e-07
263,29.159050870460426,5.196436766384888e-07
264,30.590738282742972,4.930122616293948e-07
265,32.087025577503574,4.66525781861526e-07
266,33.66394027402595,4.4045669929775993e-07
267,35.32315587389915,4.1515493996601337e-07
268,37.05448170484515,3.905793601570375e-07
269,38.87873449394723,3.672798386651112e-07
270,40.78426779125562,3.104306875287093e-07
271,40.7843493601721,3.457498405092158e-07
272,42.782700770004766,2.9262264994779266e-07
273,44.88931273372077,2.7634183945394285e-07
274,45.109466629756426,2.790623069887863e-07
275,45.32981100564775,2.773966117993344e-07
276,45.5503050442828,2.7559026781958935e-07
277,45.77075826580593,2.7367802764309795e-07
278,45.99130672725689,2.716861701516159e-07
279,46.21175994878002,2.696367306165272e-07
280,46.432240381711104,2.675512363899717e-07
281,46.65272081464218,2.654464771774305e-07
282,46.873187641869286,2.633353757968928e-07
283,47.088606752921294,2.612647755349015e-07
284,47.32495143668839,2.6445123485653427e-07
285,47.55622119287244,2.6287810764824426e-07
286,47.787531766168414,2.611669786258002e-07
287,48.018883156576315,2.593527143722967e-07
288,48.25023454698422,2.574618695472552e-07
289,48.3557528481015,2.612426933643995e-07
290,48.355849560166504,2.5668835666407655e-07
291,48.481545120280195,2.6008235028168476e-07
292,48.7127876650563,2.5806208397218747e-07
293,48.94412544976022,2.560262294473665e-07
294,49.175327177424386,2.539857376124987e-07
295,49.41582160090417,2.519545605452948e-07
296,49.649322692540274,2.5569164076488494e-07
297,49.89207566288007,2.5417664451862426e-07
298,50.134570124844316,2.525237558005344e-07
299,50.37739112370399,2.5076954653028424e-07
300,50.619885585668236,2.4893888678762776e-07
301,50.86263855600803,2.47060286869417e-07
302,51.001297707061994,2.484156747746234e-07
303,51.0013997090247,2.4609162849148005e-07
304,51.105201046492155,2.4749158987042937e-07
305,51.347967622535926,2.4554836489337255e-07
306,51.590693381467766,2.436036725919509e-07
307,51.832902123648516,2.415989998430476e-07
308,51.8721409739153,2.4694222202884817e-07
309,51.91102607587871,2.4675666460123965e-07
310,51.94973430369043,2.465649767612437e-07
311,51.98851056002203,2.46369892127741e-07
312,52.02734123916953,2.4616975678486936e-07
313,52.066239946836916,2.459662053573619e-07
314,52.10496178035261,2.4575807399192926e-07
315,52.14375164238819,2.455465130134639e-07
316,52.18259592723967,2.4532986416110087e-07
317,52.225850657500565,2.4660437881187975e-07
318,52.22595510848999,2.4517665847505703e-07
319,52.288012921645716,2.4621472221303917e-07
320,52.35424548860089,2.458186924122123e-07
321,52.420654929707744,2.454153282207542e-07
322,52.48722763926231,2.45002939952801e-07
323,52.55352823473736,2.4458265788210163e-07
324,52.61999209866011,2.441564954918416e-07
325,52.686401539766976,2.437218198299387e-07
326,52.752756558057925,2.432818146875262e-07
327,52.819057153532974,2.42836470435552e-07
328,52.894271013032856,2.434924590618651e-07
329,52.89437680282356,2.4236789613932634e-07
330,52.92569866129686,2.431418174066245e-07
331,52.965944333657866,2.428632029270751e-07
332,53.00625803453875,2.425841954378082e-07
333,53.046626158235554,2.423047309243082e-07
334,53.08683101348463,2.4202220250700183e-07
335,53.127090291549614,2.41739215665172e-07
336,53.167186301166886,2.414531647064962e-07
337,53.20756803056765,2.411677021923337e-07
338,53.247786491520706,2.408824073999989e-07
339,53.28068622525324,2.41385789836452e-07
340,53.28079278784792,2.405767947985636e-07
341,53.31396463565997,2.411672045127616e-07
342,53.34011479870185,2.4098079298916824e-07
343,53.36606087618408,2.407931618141985e-07
344,53.39202055937028,2.40605295575472e-07
345,53.41802105966842,2.4041731643525194e-07
346,53.444035165670535,2.4022910136461327e-07
347,53.4700764830806,2.400407113090798e-07
348,53.49615861760259,2.398522066858244e-07
349,53.52225435782855,2.396634649988017e-07
350,53.55686813406628,2.40033268997103e-07
351,53.556975249052535,2.3954554484085377e-07
352,53.56595587899947,2.399323958451622e-07
353,53.58354805424043,2.398044189501837e-07
354,53.60115383518538,2.396747384854773e-07
355,53.6187732218343,2.3954661102874167e-07
356,53.63639260848322,2.3941671785287045e-07
357,53.65403920654009,2.392884392848175e-07
358,53.67168580459697,2.3916002449410435e-07
359,53.68935961406179,2.3902996325702226e-07
360,53.70703342352662,2.389013965122933e-07
361,53.71930647192786,2.3929223955799644e-07
362,53.71941391072988,2.38803033170117e-07
363,53.73752380613683,2.39146424700292e-07
364,53.75034037928222,2.3905157215166135e-07
365,53.76315695242761,2.389582807877018e-07
366,53.77597352557301,2.388632837558886e-07
367,53.78881731012635,2.387699695260994e-07
368,53.80164748897572,2.386765230923392e-07
369,53.814491273529065,2.38581430060263e-07
370,53.82734866378638,2.384879602934232e-07
371,53.84019244833972,2.3839435839131904e-07
372,53.85932263140612,2.387703664075157e-07
373,53.859430350485646,2.3827988266251522e-07
374,54.37901918643951,2.351259249666571e-07
375,54.379127944994806,2.3479592942758391e-07
376,57.05673053100986,2.1757793703815103e-07
377,59.837981326375825,2.1745648333104418e-07
378,62.77685420230376,2.2031586914108242e-07
379,65.87900913164766,2.2319587949600324e-07
380,69.11052709439538,2.2595435871531264e-07
381,72.50543595619087,2.2846178802142712e-07
382,76.06398061970572,2.3040658775380608e-07
383,79.78397056659978,2.3205053954268542e-07
384,83.71660406093474,2.3341526494104083e-07
385,87.80756713243842,2.3430935257720535e-07
386,92.18162408657074,2.3500146140170988e-07
387,96.63622680824096,2.349647743752681e-07
388,101.46014275863574,2.3488630143803153e-07
389,106.42427909420718,2.3418737806971875e-07
390,111.59701808313864,2.3298973400287198e-07
391,117.07675617658458,2.3151677925831798e-07
392,122.87837801469472,2.2973471817554718e-07
393,128.89518766688926,2.2747179657383233e-07
394,135.23590831364044,2.2485490091059914e-07
395,141.87468911739384,2.2192575595704528e-07
396,148.8406734960661,2.187117751670798e-07
397,156.15149444201006,2.1517295454315375e-07
398,163.8270162830307,2.1146294518247089e-07
399,171.8662185913298,2.074786118383457e-07
400,180.31455802389124,2.033227583263673e-07
401,189.17346317963242,1.9905677005776092e-07
402,198.43836254201744,1.945758099440671e-07
403,208.20199258934673,1.9010502854500068e-07
404,218.43602624594226,1.8551128185486812e-07
405,229.13378311115176,1.808808203927263e-07
406,240.41940162805233,1.7620209275921466e-07
407,252.20562841704583,1.715059152263635e-07
408,264.5844788541219,1.6689985519906349e-07
409,277.61819903497087,1.62215169079975e-07
410,291.2480259241203,1.5770117781102968e-07
411,305.5305184329985,1.5308741841702265e-07
412,320.538480683581,1.4872482206751776e-07
413,336.2741712227277,1.4437763371074044e-07
414,352.82949658079673,1.4033589814697268e-07
415,370.102345949448,1.3641021256218036e-07
416,388.3003015542434,1.3273470747362633e-07
417,407.44096917612796,1.2962107674087143e-07
418,427.38464544667596,1.2710924023280184e-07
419,448.40609755768287,1.2509090768201693e-07
420,470.35009803248636,1.2359507534500769e-07
421,493.56801417626673,1.2273738747456037e-07
422,517.6796890142306,1.223312664210347e-07
423,543.0761504786481,1.2244156812500036e-07
424,569.7807323518381,1.2304339944444689e-07
425,597.8027273296162,1.2408132550235827e-07
426,627.1334685785498,1.2551969891952554e-07
427,658.0906901035903,1.274165262842325e-07
428,690.3356642985513,1.2963224208069308e-07
429,724.2072820380669,1.3222979914107972e-07
430,759.7076386005494,1.3520288659405746e-07
431,797.3266073576549,1.3857871587582747e-07
432,836.036998476307,1.421567382096167e-07
433,877.4542580066884,1.461864024483688e-07
434,920.4475614685377,1.5044052578956643e-07
435,965.6097093840892,1.5500527628659744e-07
436,1012.9435181340659,1.5983349613252177e-07
437,1062.4189055069771,1.6483174168107994e-07
438,1114.9666105004128,1.700708278976025e-07
439,1169.663077928482,1.7542851166000363e-07
440,1227.567198914525,1.8105448782765397e-07
441,1287.4796170473537,1.8672223770769784e-07
442,1350.7384941301189,1.926952992287562e-07
443,1417.1252273170392,1.988934304204013e-07
444,1486.8004183378464,2.053292444316285e-07
445,1559.7469648226431,2.1199093688843662e-07
446,1636.3242206248435,2.1886869266492e-07
