,E (eV),I (erg/s/cm**2)
0,0.010734900437064,7.668579014571603e-06
1,0.011265522892127998,7.585519992813572e-06
2,0.011809751051167999,7.489062219330904e-06
3,0.012394796322136,7.3930550667663995e-06
4,0.013007053001056,7.291880238871337e-06
5,0.013646521087927998,7.181812874243068e-06
6,0.014313200582752,7.071662826946826e-06
7,0.015007091485528,6.958494855501573e-06
8,0.015755405204207998,6.855463799048012e-06
9,0.016530930330839997,6.745863592146217e-06
10,0.017333666865423997,6.636288189293554e-06
11,0.018190826215912,6.533323277934007e-06
12,0.019075196974352,6.433632607384201e-06
13,0.020013990548696,6.342817935684352e-06
14,0.020993601234968,6.248848089373967e-06
15,0.022027634737144,6.165082541013061e-06
16,0.023116091055223997,6.0897258361805565e-06
17,0.024245364485232,6.017397389059392e-06
18,0.025442666435119998,5.9550686020025345e-06
19,0.026694391200912,5.899264315584893e-06
20,0.028000538782607998,5.850143280750046e-06
21,0.029374714884183997,5.8078944285190055e-06
22,0.03081691950564,5.773736917505774e-06
23,0.032340758350952,5.74969151405977e-06
24,0.033919020012168,5.728304363017655e-06
25,0.035592521601215996,5.7189256520227495e-06
26,0.037334051710144,5.712879883739672e-06
27,0.039170821746904,5.716622521370955e-06
28,0.04108922600752,5.724420751609088e-06
29,0.043116475899943996,5.739588501185143e-06
30,0.045238965720199996,5.760956220624536e-06
31,0.047443089764311996,5.786481647306841e-06
32,0.049769665144208,5.819209986234087e-06
33,0.052232297563863994,5.85956085433372e-06
34,0.054790169911352,5.906776049592026e-06
35,0.05748409929859999,5.963146712900361e-06
36,0.060300480021632,6.028106466420021e-06
37,0.063252917784424,6.102229544325422e-06
38,0.066368623994928,6.191066029782312e-06
39,0.069647598653144,6.291660837408151e-06
40,0.07306263035112,6.407017009296296e-06
41,0.07662732479283199,6.538001472987879e-06
42,0.08040971049816,6.697022851553361e-06
43,0.084341758947224,6.878431431320916e-06
44,0.088491498659904,7.095862432565922e-06
45,0.09287253534017599,7.351217561194703e-06
46,0.097389629060208,7.646619285465796e-06
47,0.10221965397168799,7.997898470932581e-06
48,0.10725376444280799,8.404814507990944e-06
49,0.112505566177544,8.881317644491812e-06
50,0.11796145347192,9.430293510677402e-06
51,0.12373027195774398,1.006441613985585e-05
52,0.129880050154896,1.0789596526543119e-05
53,0.13626112531964,1.1601238334628906e-05
54,0.14295513167583201,1.2509976230414498e-05
55,0.14997567492744798,1.3516250079999153e-05
56,0.157336360778464,1.4633785235092252e-05
57,0.165064400636832,1.5874182922600638e-05
58,0.173159794502552,1.724726585463248e-05
59,0.18166335948755197,1.876215643615576e-05
60,0.190602306999784,2.043826651920751e-05
61,0.19993581992731999,2.228353985336572e-05
62,0.209786349605944,2.4312082544529548e-05
63,0.220058656107824,2.6525580910416434e-05
64,0.23088879647271998,2.8946518053401376e-05
65,0.24224955929268,3.156327209067808e-05
66,0.254113733159752,3.435993979856061e-05
67,0.266630980817672,3.734062348414605e-05
68,0.279678850930656,4.045964379752594e-05
69,0.293447823354368,4.3699839490567634e-05
70,0.307883475272904,4.70283251368086e-05
71,0.322958595278312,5.044971279049704e-05
72,0.33885005752228,5.393085489264107e-05
73,0.355462622076976,5.74605553742714e-05
74,0.37289152887023197,6.09917569602548e-05
75,0.391245623533856,6.454068658049583e-05
76,0.410402454732064,6.807494370528755e-05
77,0.43064774224835195,7.160321294700057e-05
78,0.45183182333898403,7.509800308688955e-05
79,0.47394109229998393,7.849912104210457e-05
80,0.497329297434728,8.185913034801735e-05
81,0.521601873327912,8.495093808746665e-05
82,0.5473982880664079,8.763869061921724e-05
83,0.574269553419008,8.988176421141574e-05
84,0.602446966353304,9.191222721305657e-05
85,0.631930526869296,9.37221817612041e-05
86,0.6630195604544559,9.531111188854621e-05
87,0.695754884220712,9.661325422500497e-05
88,0.72974193275276,9.749672217147142e-05
89,0.765334454353976,9.82056768822022e-05
90,0.80300864866352,9.88919802193831e-05
91,0.8428597556092239,9.965080135979e-05
92,0.8837040789451759,0.000100344645776469
93,0.9273375715962079,0.00010093172230512592
94,0.9731887939953279,0.00010130915778138566
95,1.020441403903976,0.00010139115517313807
96,1.070673662983368,0.00010137218689889093
97,1.123042017586992,0.00010114361025207895
98,1.178553289809072,0.00010073565242015304
99,1.236132629035504,0.00010013582083234467
100,1.297317479815576,9.961294006773963e-05
101,1.360964963015304,9.89173258156092e-05
102,1.4278914208732478,9.827151182889557e-05
103,1.497933584941696,9.76301825718447e-05
104,1.571608471971736,9.689261009421833e-05
105,1.648725602107704,9.603615007739176e-05
106,1.7296931464688798,9.507621374805576e-05
107,1.8147560077268319,9.412738873303037e-05
108,1.903941397289512,9.314160120022839e-05
109,1.9971676809330638,9.193722882946125e-05
110,2.095387257935808,9.066476386150547e-05
111,2.1983008028102717,8.937323511573584e-05
112,2.306262063859832,8.794610862801736e-05
113,2.419679212203768,8.653633601487504e-05
114,2.5385794592500317,8.508059548266266e-05
115,2.662894776478744,8.342129317466922e-05
116,2.7937000145040076,8.14580962810399e-05
117,2.93107680754968,7.942530914625542e-05
118,3.0750115499117836,7.720559085386531e-05
119,3.226238949605024,7.531675669068339e-05
120,3.384772612333376,7.438959772585496e-05
121,3.5505172981690083,7.376009367559579e-05
122,3.725486651300368,7.285565950105521e-05
123,3.9087146667451598,7.174754592834997e-05
124,4.10001086464772,7.042522446589652e-05
125,4.302028357283368,6.895408177625099e-05
126,4.513447391366432,6.736448432725829e-05
127,4.73403666992932,6.560786974829596e-05
128,4.967320070301816,6.372423353905778e-05
129,5.211610485190896,6.169573524280753e-05
130,5.466676617628968,5.93666002528432e-05
131,5.734708985956168,5.6753596670790166e-05
132,6.0157348015804475,5.4069343817614976e-05
133,6.312842559304359,5.136884225912301e-05
134,6.6230934270690875,4.856042176428008e-05
135,6.9459023596036635,4.56720154852438e-05
136,7.288902156838623,4.2789133253457225e-05
137,7.648623364260087,3.9997089784612054e-05
138,8.024875502012392,3.7673071869621016e-05
139,8.41712794764047,3.5217791340116385e-05
140,8.830795771326777,3.222605138371317e-05
141,9.266382384118415,2.9141695391419372e-05
142,9.716635945796183,2.5733413567329856e-05
143,10.196063546387911,1.638590178193477e-05
144,10.196083938617031,2.301280428828644e-05
145,10.697525568241927,1.3853548369838507e-05
146,11.220297532111775,1.091325477976345e-05
147,11.277346248883143,1.047900395150908e-05
148,11.332490167097871,1.0143272953625676e-05
149,11.387552451088743,9.819414743948786e-06
150,11.4427371864154,9.507104642677026e-06
151,11.497799470406273,9.20561915156418e-06
152,11.552984205732928,8.918384105668817e-06
153,11.608032884019822,8.642942677705548e-06
154,11.66317680223455,8.3785524533195e-06
155,11.718293509041327,8.114780087559005e-06
156,11.774389826534374,7.853028647824661e-06
157,11.831234457746103,7.481115982355001e-06
158,11.889099516756032,7.162086282745153e-06
159,11.946842124430175,6.881924286967063e-06
160,12.00467997203215,6.6120841578833366e-06
161,12.062490608226176,6.351990234464235e-06
162,12.084220438593553,6.297193090184486e-06
163,12.084244607766095,6.23845624429938e-06
164,12.120382878644056,6.152704551555718e-06
165,12.178247937653984,5.905325594505003e-06
166,12.236058573848007,5.678974957726354e-06
167,12.293814787226127,5.461216248384394e-06
168,12.349026733960736,5.249460741198276e-06
169,12.412334074561063,4.946476292268835e-06
170,12.47298830288607,4.6889020754552685e-06
171,12.53366974261903,4.466719380071795e-06
172,12.594337576648016,4.248091425920381e-06
173,12.654991804973022,4.032835542269599e-06
174,12.715659639002007,3.8209188573849335e-06
175,12.749008076606534,3.7235261240363296e-06
176,12.749033573695785,3.7053265304301036e-06
177,12.776327473030992,3.6449840639331124e-06
178,12.836995307059976,3.4720459063791466e-06
179,12.897663141088959,3.302208286254492e-06
180,12.958222129486135,3.1353525598044416e-06
181,12.968018236348854,3.0979801618381338e-06
182,12.97773270898772,3.0683914671667386e-06
183,12.987433575922607,3.039943593499458e-06
184,12.99714804856147,3.0126021733861643e-06
185,13.00684891549636,2.986316017262706e-06
186,13.016563388135223,2.9610503651884637e-06
187,13.026250649366135,2.936754763597423e-06
188,13.035965122004999,2.9134042012010367e-06
189,13.045679594643863,2.8909550343899046e-06
190,13.055081687122291,2.8783335145074768e-06
191,13.05510779646822,2.869215538167121e-06
192,13.071979420429471,2.8431377586814786e-06
193,13.088578379280191,2.810290755559965e-06
194,13.105177338130911,2.7796011422776423e-06
195,13.121776296981631,2.750917984951512e-06
196,13.138388861536328,2.724112322306013e-06
197,13.154987820387047,2.699061984625115e-06
198,13.171586779237767,2.6756446960415196e-06
199,13.188185738088487,2.653754698504848e-06
200,13.204798302643184,2.6332964063853315e-06
201,13.220744572744477,2.6195962598098037e-06
202,13.220771014069586,2.6139774502009887e-06
203,13.231451876732168,2.608908767823556e-06
204,13.241520097674407,2.598352773255898e-06
205,13.25157471291267,2.5882179688989006e-06
206,13.261642933854912,2.5784945737010626e-06
207,13.271697549093174,2.5691580928108286e-06
208,13.28175216433144,2.5602000022585804e-06
209,13.29182038527368,2.5516036191285313e-06
210,13.301875000511943,2.5433524351881785e-06
211,13.311943221454182,2.5354322650186525e-06
212,13.321603555636356,2.531908844989291e-06
213,13.321630198325881,2.5278660848261254e-06
214,13.328501363192975,2.527254325083159e-06
215,13.33501849539748,2.522626968499771e-06
216,13.341508416194031,2.5181144154318716e-06
217,13.348025548398535,2.5137271332569447e-06
218,13.354529074899064,2.5094535441280454e-06
219,13.361032601399591,2.5052923335066777e-06
220,13.36753612790012,2.501239611914442e-06
221,13.374039654400647,2.49729148111437e-06
222,13.380543180901174,2.4934481018362193e-06
223,13.386325824142808,2.492959710422499e-06
224,13.386352597447093,2.489710704095073e-06
225,13.391454955489928,2.4904765782132012e-06
226,13.395876809282127,2.48804262542729e-06
227,13.400271451666375,2.4856462648278558e-06
228,13.404693305458576,2.4832976408719073e-06
229,13.4091015535468,2.4809892279013426e-06
230,13.413509801635023,2.4787195177329275e-06
231,13.417918049723248,2.4764926273705222e-06
232,13.422339903515448,2.4743111094972546e-06
233,13.426748151603672,2.472161828836822e-06
234,13.43127902518069,2.472763438012376e-06
235,13.43130588828262,2.469911579361155e-06
236,13.434367345830232,2.4711889212459124e-06
237,13.437564686264592,2.4696947009884668e-06
238,13.440789238106902,2.468224906479241e-06
239,13.444000184245239,2.4667720517372174e-06
240,13.447197524679599,2.465336156276892e-06
241,13.450408470817935,2.4639222262814824e-06
242,13.45361941695627,2.462527779889475e-06
243,13.456830363094607,2.4611487427220113e-06
244,13.460041309232944,2.459789216532359e-06
245,13.463374849566955,2.4606725027954995e-06
246,13.463401775255123,2.4586319729016035e-06
247,13.594764990003295,2.4185933289344005e-06
248,14.203715482857126,2.34954803115083e-06
249,14.900164257980615,2.2741467234782375e-06
250,15.632872234200144,2.2059478253729343e-06
251,16.40004345859088,2.1432788992182885e-06
252,17.20570521952972,2.083886298557843e-06
253,18.04983030560871,2.025975836025574e-06
254,18.93757527863476,1.968528438469309e-06
255,19.86609654647688,1.9105152250887625e-06
256,20.844700410654657,1.8519841809376377e-06
257,21.866720076219845,1.7999353120083794e-06
258,22.94305371205723,1.7477117364457911e-06
259,24.06994614386943,1.6945929651737388e-06
260,25.251383842921417,1.6396605684660245e-06
261,26.49237370827635,1.5825907864295056e-06
262,27.792929345638214,1.5217852024784625e-06
263,29.159050870460426,1.461027148496897e-06
264,30.590738282742972,1.3979834871055339e-06
265,32.087025577503574,1.3327915232410527e-06
266,33.66394027402595,1.2653156920089982e-06
267,35.32315587389915,1.1967367065425304e-06
268,37.05448170484515,1.128165231729936e-06
269,38.87873449394723,1.060019939865478e-06
270,40.78426779125562,8.647446457210775e-07
271,40.7843493601721,9.949912075915782e-07
272,42.782700770004766,8.070197294920729e-07
273,44.88931273372077,7.518243924761729e-07
274,45.109466629756426,7.546453575650217e-07
275,45.32981100564775,7.494241418258808e-07
276,45.5503050442828,7.438101288091951e-07
277,45.77075826580593,7.378930282887664e-07
278,45.99130672725689,7.317362383223302e-07
279,46.21175994878002,7.254019578764094e-07
280,46.432240381711104,7.189417486548497e-07
281,46.65272081464218,7.124014949736389e-07
282,46.873187641869286,7.058224965438866e-07
283,47.088606752921294,6.992338214409527e-07
284,47.32495143668839,7.032739960042786e-07
285,47.55622119287244,6.982704702680982e-07
286,47.787531766168414,6.928688995885672e-07
287,48.018883156576315,6.871565865430137e-07
288,48.25023454698422,6.811956375590013e-07
289,48.3557528481015,6.95422760338685e-07
290,48.355849560166504,6.785270927759297e-07
291,48.481545120280195,6.919506610867236e-07
292,48.7127876650563,6.855664048408536e-07
293,48.94412544976022,6.791093691178483e-07
294,49.175327177424386,6.726079649990521e-07
295,49.41582160090417,6.662231138724799e-07
296,49.649322692540274,6.716718043399835e-07
297,49.89207566288007,6.668271148603076e-07
298,50.134570124844316,6.615571556482677e-07
299,50.37739112370399,6.559672605717792e-07
300,50.619885585668236,6.501145894828276e-07
301,50.86263855600803,6.440815005842256e-07
302,51.001297707061994,6.493210712891781e-07
303,51.0013997090247,6.407990452255387e-07
304,51.105201046492155,6.464434548665668e-07
305,51.347967622535926,6.401482381060698e-07
306,51.590693381467766,6.338125528518612e-07
307,51.832902123648516,6.274644168908533e-07
308,51.8721409739153,6.378518508933481e-07
309,51.91102607587871,6.372526865720696e-07
310,51.94973430369043,6.366355339878891e-07
311,51.98851056002203,6.360065279500671e-07
312,52.02734123916953,6.353638924669287e-07
313,52.066239946836916,6.347077616565727e-07
314,52.10496178035261,6.340382888099839e-07
315,52.14375164238819,6.333568548947398e-07
316,52.18259592723967,6.326648510946934e-07
317,52.225850657500565,6.374580370238141e-07
318,52.22595510848999,6.32063838574209e-07
319,52.288012921645716,6.3609415405373e-07
320,52.35424548860089,6.348270713623041e-07
321,52.420654929707744,6.335329895289938e-07
322,52.48722763926231,6.322116325307612e-07
323,52.55352823473736,6.308624538290173e-07
324,52.61999209866011,6.294922215958057e-07
325,52.686401539766976,6.280982535997445e-07
326,52.752756558057925,6.266820931721423e-07
327,52.819057153532974,6.252452914896484e-07
328,52.894271013032856,6.276158763639129e-07
329,52.89437680282356,6.239205391175349e-07
330,52.92569866129686,6.266186231273514e-07
331,52.965944333657866,6.257206974027082e-07
332,53.00625803453875,6.24816653139006e-07
333,53.046626158235554,6.239095374806432e-07
334,53.08683101348463,6.229951747990744e-07
335,53.127090291549614,6.22076119624918e-07
336,53.167186301166886,6.211514326511578e-07
337,53.20756803056765,6.20224739706573e-07
338,53.247786491520706,6.192924073493683e-07
339,53.28068622525324,6.210301071196107e-07
340,53.28079278784792,6.182791247941508e-07
341,53.31396463565997,6.204881352486902e-07
342,53.34011479870185,6.1987999400681e-07
343,53.36606087618408,6.192669682302353e-07
344,53.39202055937028,6.186532108227965e-07
345,53.41802105966842,6.180390359227612e-07
346,53.444035165670535,6.174241269468972e-07
347,53.4700764830806,6.168086403289314e-07
348,53.49615861760259,6.161911057448341e-07
349,53.52225435782855,6.155744585403029e-07
350,53.55686813406628,6.170889194155504e-07
351,53.556975249052535,6.149746018486447e-07
352,53.56595587899947,6.166483767069735e-07
353,53.58354805424043,6.162256853693113e-07
354,53.60115383518538,6.158027398870766e-07
355,53.6187732218343,6.153795396542522e-07
356,53.63639260848322,6.149559282175674e-07
357,53.65403920654009,6.145322174072819e-07
358,53.67168580459697,6.141097254704935e-07
359,53.68935961406179,6.136855025593716e-07
360,53.70703342352662,6.132608672743597e-07
361,53.71930647192786,6.143901703954763e-07
362,53.71941391072988,6.127591159283323e-07
363,53.73752380613683,6.142164397709219e-07
364,53.75034037928222,6.139072632539227e-07
365,53.76315695242761,6.13596235691983e-07
366,53.77597352557301,6.132849901053965e-07
367,53.78881731012635,6.129754709690094e-07
368,53.80164748897572,6.126639443071203e-07
369,53.814491273529065,6.123539892124116e-07
370,53.82734866378638,6.120439712721118e-07
371,53.84019244833972,6.117319445742622e-07
372,53.85932263140612,6.128821261888976e-07
373,53.859430350485646,6.115741218138223e-07
374,54.37901918643951,5.999594051283883e-07
375,54.379127944994806,5.999606050529018e-07
376,57.05673053100986,5.410842562366117e-07
377,59.837981326375825,5.341865786152948e-07
378,62.77685420230376,5.377233205104702e-07
379,65.87900913164766,5.436771378271276e-07
380,69.11052709439538,5.489262952254419e-07
381,72.50543595619087,5.536398006684392e-07
382,76.06398061970572,5.574688431145593e-07
383,79.78397056659978,5.607322378287786e-07
384,83.71660406093474,5.636968473770717e-07
385,87.80756713243842,5.656295005632084e-07
386,92.18162408657074,5.674767113286431e-07
387,96.63622680824096,5.678853707042974e-07
388,101.46014275863574,5.681788338422056e-07
389,106.42427909420718,5.675211937208273e-07
390,111.59701808313864,5.656045355142732e-07
391,117.07675617658458,5.634950497153578e-07
392,122.87837801469472,5.604287533522393e-07
393,128.89518766688926,5.565382625775573e-07
394,135.23590831364044,5.518642762300326e-07
395,141.87468911739384,5.4619256571337e-07
396,148.8406734960661,5.39543316346934e-07
397,156.15149444201006,5.32357342853497e-07
398,163.8270162830307,5.246750099357979e-07
399,171.8662185913298,5.163204216566956e-07
400,180.31455802389124,5.072932954909599e-07
401,189.17346317963242,4.977856277296197e-07
402,198.43836254201744,4.877358929633406e-07
403,208.20199258934673,4.774451416258159e-07
404,218.43602624594226,4.6679815574684796e-07
405,229.13378311115176,4.558920754132701e-07
406,240.41940162805233,4.4488836846749645e-07
407,252.20562841704583,4.3366933609021713e-07
408,264.5844788541219,4.2247530784953506e-07
409,277.61819903497087,4.1123190289756606e-07
410,291.2480259241203,4.000052321484727e-07
411,305.5305184329985,3.887993380146578e-07
412,320.538480683581,3.7780195464436115e-07
413,336.2741712227277,3.6681932420763116e-07
414,352.82949658079673,3.561465649922668e-07
415,370.102345949448,3.454675787286645e-07
416,388.3003015542434,3.350813948670198e-07
417,407.44096917612796,3.2498120954663423e-07
418,427.38464544667596,3.1530571645746424e-07
419,448.40609755768287,3.061532181067403e-07
420,470.35009803248636,2.9755428643642287e-07
421,493.56801417626673,2.8944667378286987e-07
422,517.6796890142306,2.8282321846946707e-07
423,543.0761504786481,2.778862543528425e-07
424,569.7807323518381,2.7423771599820416e-07
425,597.8027273296162,2.719217453864783e-07
426,627.1334685785498,2.711621854957076e-07
427,658.0906901035903,2.717499359995562e-07
428,690.3356642985513,2.733184650839769e-07
429,724.2072820380669,2.763864665099146e-07
430,759.7076386005494,2.80470389635255e-07
431,797.3266073576549,2.8563689863081183e-07
432,836.036998476307,2.916296202401221e-07
433,877.4542580066884,2.988782730991897e-07
434,920.4475614685377,3.068102933516735e-07
435,965.6097093840892,3.159959919674833e-07
436,1012.9435181340659,3.256380491172855e-07
437,1062.4189055069771,3.357324938038866e-07
438,1114.9666105004128,3.4623981300774836e-07
439,1169.663077928482,3.571832541454286e-07
440,1227.567198914525,3.6815158528369966e-07
441,1287.4796170473537,3.79312553232876e-07
442,1350.7384941301189,3.910134431708186e-07
443,1417.1252273170392,4.0308322194877263e-07
444,1486.8004183378464,4.156279534411628e-07
445,1559.7469648226431,4.285790391190694e-07
446,1636.3242206248435,4.4206305005846494e-07
447,1716.7583261502325,4.560203372050275e-07
448,1801.0500705296406,4.7053016898736634e-07
