,E (eV),I (erg/s/cm**2)
0,0.010734900437064,4.602452144329791e-06
1,0.011265522892127998,4.549258153630435e-06
2,0.011809751051167999,4.4891312102442355e-06
3,0.012394796322136,4.429053875554896e-06
4,0.013007053001056,4.363271427506285e-06
5,0.013646521087927998,4.299965329363606e-06
6,0.014313200582752,4.23560419801006e-06
7,0.015007091485528,4.1687129736957325e-06
8,0.015755405204207998,4.10801221086936e-06
9,0.016530930330839997,4.046513558355481e-06
10,0.017333666865423997,3.9849330513673805e-06
11,0.018190826215912,3.9293904555542025e-06
12,0.019075196974352,3.8735105145479025e-06
13,0.020013990548696,3.822718460962653e-06
14,0.020993601234968,3.775079929235354e-06
15,0.022027634737144,3.7314444864684496e-06
16,0.023116091055223997,3.693871761214171e-06
17,0.024245364485232,3.6584715268532964e-06
18,0.025442666435119998,3.6288578498911833e-06
19,0.026694391200912,3.603799168149748e-06
20,0.028000538782607998,3.5818940097129876e-06
21,0.029374714884183997,3.5648886349255635e-06
22,0.03081691950564,3.5526366959010443e-06
23,0.032340758350952,3.545528454055247e-06
24,0.033919020012168,3.540252876761425e-06
25,0.035592521601215996,3.5408023042348945e-06
26,0.037334051710144,3.542756925565958e-06
27,0.039170821746904,3.5504236902496385e-06
28,0.04108922600752,3.560752014083839e-06
29,0.043116475899943996,3.5765981752973145e-06
30,0.045238965720199996,3.5959583574292496e-06
31,0.047443089764311996,3.618352997945006e-06
32,0.049769665144208,3.6460798535429255e-06
33,0.052232297563863994,3.682064241845964e-06
34,0.054790169911352,3.722534172836641e-06
35,0.05748409929859999,3.771070225983044e-06
36,0.060300480021632,3.827572769109881e-06
37,0.063252917784424,3.895817098376074e-06
38,0.066368623994928,3.974785389132744e-06
39,0.069647598653144,4.067464557258743e-06
40,0.07306263035112,4.173663193799343e-06
41,0.07662732479283199,4.2981305976648365e-06
42,0.08040971049816,4.444321258339205e-06
43,0.084341758947224,4.615519749316282e-06
44,0.088491498659904,4.8157217187864715e-06
45,0.09287253534017599,5.048494517866277e-06
46,0.097389629060208,5.314755509456694e-06
47,0.10221965397168799,5.628035738721582e-06
48,0.10725376444280799,5.983419712778203e-06
49,0.112505566177544,6.385797290820159e-06
50,0.11796145347192,6.838844553060708e-06
51,0.12373027195774398,7.349993855577698e-06
52,0.129880050154896,7.924473236369051e-06
53,0.13626112531964,8.562227293915477e-06
54,0.14295513167583201,9.269544886773795e-06
55,0.14997567492744798,1.0052881886604029e-05
56,0.157336360778464,1.0923946181486023e-05
57,0.165064400636832,1.188181337681909e-05
58,0.173159794502552,1.2932818632974543e-05
59,0.18166335948755197,1.4097836873506855e-05
60,0.190602306999784,1.537068839145017e-05
61,0.19993581992731999,1.6755180727824702e-05
62,0.209786349605944,1.824999798718578e-05
63,0.220058656107824,1.985908124429688e-05
64,0.23088879647271998,2.1566067986232685e-05
65,0.24224955929268,2.337065971966318e-05
66,0.254113733159752,2.525648608307673e-05
67,0.266630980817672,2.7221630487469856e-05
68,0.279678850930656,2.9250597342075932e-05
69,0.293447823354368,3.131480030265203e-05
70,0.307883475272904,3.340723076928413e-05
71,0.322958595278312,3.550419390238531e-05
72,0.33885005752228,3.7611571766421985e-05
73,0.355462622076976,3.971474851953668e-05
74,0.37289152887023197,4.1786661654668036e-05
75,0.391245623533856,4.385533113952064e-05
76,0.410402454732064,4.586547773407158e-05
77,0.43064774224835195,4.784015836340174e-05
78,0.45183182333898403,4.975414318187288e-05
79,0.47394109229998393,5.1598303198265346e-05
80,0.497329297434728,5.338901744283151e-05
81,0.521601873327912,5.501207203658533e-05
82,0.5473982880664079,5.643539138764092e-05
83,0.574269553419008,5.761785777412663e-05
84,0.602446966353304,5.8669326475020985e-05
85,0.631930526869296,5.962044137081827e-05
86,0.6630195604544559,6.04583907827401e-05
87,0.695754884220712,6.116020665703632e-05
88,0.72974193275276,6.162005707094154e-05
89,0.765334454353976,6.197445629377768e-05
90,0.80300864866352,6.234123106385635e-05
91,0.8428597556092239,6.269472160003613e-05
92,0.8837040789451759,6.299398957174433e-05
93,0.9273375715962079,6.323025819870711e-05
94,0.9731887939953279,6.331083094788492e-05
95,1.020441403903976,6.32531977131356e-05
96,1.070673662983368,6.311362085057767e-05
97,1.123042017586992,6.285645415123474e-05
98,1.178553289809072,6.248976660541251e-05
99,1.236132629035504,6.201209309824794e-05
100,1.297317479815576,6.161259411402368e-05
101,1.360964963015304,6.10789674879362e-05
102,1.4278914208732478,6.0568225400719946e-05
103,1.497933584941696,6.012562758939546e-05
104,1.571608471971736,5.964458847914126e-05
105,1.648725602107704,5.9114583768388044e-05
106,1.7296931464688798,5.860142527536451e-05
107,1.8147560077268319,5.806452275486584e-05
108,1.903941397289512,5.75163850431199e-05
109,1.9971676809330638,5.6867575675137764e-05
110,2.095387257935808,5.616249171802597e-05
111,2.1983008028102717,5.5380679545746065e-05
112,2.306262063859832,5.4540602661504024e-05
113,2.419679212203768,5.3649587428421025e-05
114,2.5385794592500317,5.2760768189330435e-05
115,2.662894776478744,5.171149220169414e-05
116,2.7937000145040076,5.047413927855706e-05
117,2.93107680754968,4.9171017242618216e-05
118,3.0750115499117836,4.774543981509754e-05
119,3.226238949605024,4.647621286543715e-05
120,3.384772612333376,4.5705429602548316e-05
121,3.5505172981690083,4.507381473529867e-05
122,3.725486651300368,4.4283924794224336e-05
123,3.9087146667451598,4.338582772502125e-05
124,4.10001086464772,4.2382206549427825e-05
125,4.302028357283368,4.129401787931956e-05
126,4.513447391366432,4.019651945455481e-05
127,4.73403666992932,3.905401586783964e-05
128,4.967320070301816,3.7914560552463635e-05
129,5.211610485190896,3.675456917742806e-05
130,5.466676617628968,3.5430598297718705e-05
131,5.734708985956168,3.39963976349873e-05
132,6.0157348015804475,3.253665719564337e-05
133,6.312842559304359,3.1074505021288136e-05
134,6.6230934270690875,2.956289248850861e-05
135,6.9459023596036635,2.7985717441130255e-05
136,7.288902156838623,2.637777313896476e-05
137,7.648623364260087,2.4797730854436134e-05
138,8.024875502012392,2.3457278402688164e-05
139,8.41712794764047,2.1977231732813785e-05
140,8.830795771326777,2.0140611298962764e-05
141,9.266382384118415,1.8186107295788826e-05
142,9.716635945796183,1.6005143981923718e-05
143,10.196063546387911,1.0288822049609873e-05
144,10.196083938617031,1.4180076092224438e-05
145,10.697525568241927,8.662530832225487e-06
146,11.220297532111775,6.777741489005918e-06
147,11.277346248883143,6.488862633509214e-06
148,11.332490167097871,6.273974331168182e-06
149,11.387552451088743,6.0664693492017725e-06
150,11.4427371864154,5.866252290914784e-06
151,11.497799470406273,5.672843668555781e-06
152,11.552984205732928,5.488147261636173e-06
153,11.608032884019822,5.312192464635327e-06
154,11.66317680223455,5.1451361579707386e-06
155,11.718293509041327,4.9784575703411644e-06
156,11.774389826534374,4.811992496518431e-06
157,11.831234457746103,4.568154200350535e-06
158,11.889099516756032,4.36005224418372e-06
159,11.946842124430175,4.180302538302838e-06
160,12.00467997203215,4.0071413486490904e-06
161,12.062490608226176,3.840208101876019e-06
162,12.084220438593553,3.7966750178213385e-06
163,12.084244607766095,3.767307890848514e-06
164,12.120382878644056,3.7046230885584695e-06
165,12.178247937653984,3.546740343312764e-06
166,12.236058573848007,3.404206111064062e-06
167,12.293814787226127,3.2671257305381696e-06
168,12.349026733960736,3.1346672643464137e-06
169,12.412334074561063,2.9330896290484794e-06
170,12.47298830288607,2.7645682352255914e-06
171,12.53366974261903,2.6219421111840715e-06
172,12.594337576648016,2.4817551553141473e-06
173,12.654991804973022,2.3438611916380687e-06
174,12.715659639002007,2.2082771123088774e-06
175,12.749008076606534,2.143003174980481e-06
176,12.749033573695785,2.134485016540715e-06
177,12.776327473030992,2.094262613364078e-06
178,12.836995307059976,1.9864334384136347e-06
179,12.897663141088959,1.8806380206520482e-06
180,12.958222129486135,1.7769491526555881e-06
181,12.968018236348854,1.754271941232556e-06
182,12.97773270898772,1.735561856285824e-06
183,12.987433575922607,1.717676337079939e-06
184,12.99714804856147,1.700573532030825e-06
185,13.00684891549636,1.6842200580440102e-06
186,13.016563388135223,1.668581649183976e-06
187,13.026250649366135,1.6536230623609088e-06
188,13.035965122004999,1.639317174547304e-06
189,13.045679594643863,1.6256382189995021e-06
190,13.055081687122291,1.6168808438406611e-06
191,13.05510779646822,1.612520553264747e-06
192,13.071979420429471,1.5956462793629103e-06
193,13.088578379280191,1.576049445012717e-06
194,13.105177338130911,1.5578950183455692e-06
195,13.121776296981631,1.5410650883859774e-06
196,13.138388861536328,1.525466651568331e-06
197,13.154987820387047,1.5110014442610826e-06
198,13.171586779237767,1.497591480315402e-06
199,13.188185738088487,1.4851487389272442e-06
200,13.204798302643184,1.4736063142503607e-06
201,13.220744572744477,1.465463449917218e-06
202,13.220771014069586,1.4626543562593933e-06
203,13.231451876732168,1.4594899356095556e-06
204,13.241520097674407,1.4536358587613128e-06
205,13.25157471291267,1.4480435090276246e-06
206,13.261642933854912,1.442696342222204e-06
207,13.271697549093174,1.4375839040699624e-06
208,13.28175216433144,1.4326961331386941e-06
209,13.29182038527368,1.428022906774383e-06
210,13.301875000511943,1.4235537159075835e-06
211,13.311943221454182,1.4192798301338986e-06
212,13.321603555636356,1.4171403465423035e-06
213,13.321630198325881,1.4151192687789531e-06
214,13.328501363192975,1.4146220497497834e-06
215,13.33501849539748,1.4121492187786116e-06
216,13.341508416194031,1.4097393349991533e-06
217,13.348025548398535,1.4074023120942445e-06
218,13.354529074899064,1.4051258284661203e-06
219,13.361032601399591,1.4029154764079285e-06
220,13.36753612790012,1.4007713561708165e-06
221,13.374039654400647,1.3986813778323485e-06
222,13.380543180901174,1.3966537556041066e-06
223,13.386325824142808,1.3959598181899524e-06
224,13.386352597447093,1.3947423630178576e-06
225,13.391454955489928,1.394915909074224e-06
226,13.395876809282127,1.3936343855298043e-06
227,13.400271451666375,1.3923733145840112e-06
228,13.404693305458576,1.3911424521239912e-06
229,13.4091015535468,1.3899294363203028e-06
230,13.413509801635023,1.388743852161551e-06
231,13.417918049723248,1.3875775738017441e-06
232,13.422339903515448,1.3864361053848689e-06
233,13.426748151603672,1.3853125784117764e-06
234,13.43127902518069,1.3855474288934768e-06
235,13.43130588828262,1.3843258553447207e-06
236,13.434367345830232,1.3846781296660398e-06
237,13.437564686264592,1.3839011719590655e-06
238,13.440789238106902,1.3831346563223791e-06
239,13.444000184245239,1.3823784695231447e-06
240,13.447197524679599,1.3816285377089658e-06
241,13.450408470817935,1.3808917504092625e-06
242,13.45361941695627,1.3801667176245555e-06
243,13.456830363094607,1.3794493594288857e-06
244,13.460041309232944,1.3787437713573087e-06
245,13.463374849566955,1.3790402337592735e-06
246,13.463401775255123,1.378224811500472e-06
247,13.594764990003295,1.3573864524422447e-06
248,14.203715482857126,1.3271234746728976e-06
249,14.900164257980615,1.2848951623156028e-06
250,15.632872234200144,1.2459520124108364e-06
251,16.40004345859088,1.2094252237782932e-06
252,17.20570521952972,1.1736890967024115e-06
253,18.04983030560871,1.1385830633076191e-06
254,18.93757527863476,1.107692851077067e-06
255,19.86609654647688,1.076287091993955e-06
256,20.844700410654657,1.045066312705034e-06
257,21.866720076219845,1.0119237652900081e-06
258,22.94305371205723,9.780772101465557e-07
259,24.06994614386943,9.427407562766068e-07
260,25.251383842921417,9.084502166409515e-07
261,26.49237370827635,8.725983786698328e-07
262,27.792929345638214,8.356306647361948e-07
263,29.159050870460426,7.975843779286153e-07
264,30.590738282742972,7.587592555911984e-07
265,32.087025577503574,7.194344292793831e-07
266,33.66394027402595,6.802222596898871e-07
267,35.32315587389915,6.415152730214705e-07
268,37.05448170484515,6.032644024381945e-07
269,38.87873449394723,5.665725655530108e-07
270,40.78426779125562,4.719042148041347e-07
271,40.7843493601721,5.321325501991152e-07
272,42.782700770004766,4.42768878570576e-07
273,44.88931273372077,4.154675434470307e-07
274,45.109466629756426,4.186181324606653e-07
275,45.32981100564775,4.1595511546784196e-07
276,45.5503050442828,4.130760639666531e-07
277,45.77075826580593,4.1003097065092004e-07
278,45.99130672725689,4.0685707606788584e-07
279,46.21175994878002,4.03590835072475e-07
280,46.432240381711104,4.0026236077969674e-07
281,46.65272081464218,3.96896747595762e-07
282,46.873187641869286,3.935154259461269e-07
283,47.088606752921294,3.900371183502321e-07
284,47.32495143668839,3.938972267943877e-07
285,47.55622119287244,3.913729486347772e-07
286,47.787531766168414,3.886329361591636e-07
287,48.018883156576315,3.8572865387734416e-07
288,48.25023454698422,3.8269615518122766e-07
289,48.3557528481015,3.890723577811647e-07
290,48.355849560166504,3.812857959593084e-07
291,48.481545120280195,3.873533068322289e-07
292,48.7127876650563,3.8410469279272615e-07
293,48.94412544976022,3.80824795123564e-07
294,49.175327177424386,3.775299708315742e-07
295,49.41582160090417,3.7432819989474353e-07
296,49.649322692540274,3.788064537737977e-07
297,49.89207566288007,3.763713569381082e-07
298,50.134570124844316,3.7371742671636744e-07
299,50.37739112370399,3.708985422462825e-07
300,50.619885585668236,3.679511408593587e-07
301,50.86263855600803,3.64916976561988e-07
302,51.001297707061994,3.672770736993117e-07
303,51.0013997090247,3.6324860019585173e-07
304,51.105201046492155,3.657876597233618e-07
305,51.347967622535926,3.626324031297465e-07
306,51.590693381467766,3.5946821894609496e-07
307,51.832902123648516,3.562561523302341e-07
308,51.8721409739153,3.633159153332862e-07
309,51.91102607587871,3.630188513503223e-07
310,51.94973430369043,3.6271180671350353e-07
311,51.98851056002203,3.62398056681057e-07
312,52.02734123916953,3.6207748997868645e-07
313,52.066239946836916,3.6175018518060977e-07
314,52.10496178035261,3.6141601031206927e-07
315,52.14375164238819,3.6107507234081595e-07
316,52.18259592723967,3.607288462668469e-07
317,52.225850657500565,3.6292420481880237e-07
318,52.22595510848999,3.6038588435039716e-07
319,52.288012921645716,3.6226944634637303e-07
320,52.35424548860089,3.6163385669155317e-07
321,52.420654929707744,3.609855661077664e-07
322,52.48722763926231,3.603228327846937e-07
323,52.55352823473736,3.5964740883383113e-07
324,52.61999209866011,3.589606528272853e-07
325,52.686401539766976,3.582626383671737e-07
326,52.752756558057925,3.5755333883269036e-07
327,52.819057153532974,3.568343323489097e-07
328,52.894271013032856,3.5792587876971886e-07
329,52.89437680282356,3.5615865911168726e-07
330,52.92569866129686,3.5740200396870523e-07
331,52.965944333657866,3.5695277286772186e-07
332,53.00625803453875,3.565012929715089e-07
333,53.046626158235554,3.5604746645422283e-07
334,53.08683101348463,3.5559144249722693e-07
335,53.127090291549614,3.551330685175811e-07
336,53.167186301166886,3.5467088648320003e-07
337,53.20756803056765,3.542095051385109e-07
338,53.247786491520706,3.537443119303239e-07
339,53.28068622525324,3.5455055642909515e-07
340,53.28079278784792,3.5325610116943175e-07
341,53.31396463565997,3.542568556793096e-07
342,53.34011479870185,3.5395411349382297e-07
343,53.36606087618408,3.5364955171684764e-07
344,53.39202055937028,3.5334461642080187e-07
345,53.41802105966842,3.5303786398659853e-07
346,53.444035165670535,3.5273235904676595e-07
347,53.4700764830806,3.524265687080061e-07
348,53.49615861760259,3.52120581843173e-07
349,53.52225435782855,3.518125920663094e-07
350,53.55686813406628,3.5248275300170113e-07
351,53.556975249052535,3.5150704953564637e-07
352,53.56595587899947,3.5228539966279394e-07
353,53.58354805424043,3.5207546659533777e-07
354,53.60115383518538,3.518654089477127e-07
355,53.6187732218343,3.5165522654338186e-07
356,53.63639260848322,3.5144483005776413e-07
357,53.65403920654009,3.5123602781305793e-07
358,53.67168580459697,3.5102538134579105e-07
359,53.68935961406179,3.508146981716145e-07
360,53.70703342352662,3.506054321052719e-07
361,53.71930647192786,3.511034156276711e-07
362,53.71941391072988,3.50287976197959e-07
363,53.73752380613683,3.5102980777392524e-07
364,53.75034037928222,3.508767121384241e-07
365,53.76315695242761,3.5072350367521767e-07
366,53.77597352557301,3.5057018219633845e-07
367,53.78881731012635,3.5041529064875074e-07
368,53.80164748897572,3.502618314277009e-07
369,53.814491273529065,3.5010834759341184e-07
370,53.82734866378638,3.499548391027274e-07
371,53.84019244833972,3.4980112887783656e-07
372,53.85932263140612,3.5038201129357805e-07
373,53.859430350485646,3.497280970226482e-07
374,54.37901918643951,3.4384894576585197e-07
375,54.379127944994806,3.4401486638130336e-07
376,57.05673053100986,3.153579820886201e-07
377,59.837981326375825,3.1363915860945197e-07
378,62.77685420230376,3.170259519443068e-07
379,65.87900913164766,3.210817853442688e-07
380,69.11052709439538,3.2486188936574314e-07
381,72.50543595619087,3.2804204666613453e-07
382,76.06398061970572,3.3073711215267347e-07
383,79.78397056659978,3.3309385848805757e-07
384,83.71660406093474,3.350129729180441e-07
385,87.80756713243842,3.364428303309615e-07
386,92.18162408657074,3.3751699761701345e-07
387,96.63622680824096,3.37677443872983e-07
388,101.46014275863574,3.3788605634784594e-07
389,106.42427909420718,3.3695560336712627e-07
390,111.59701808313864,3.3573444280570337e-07
391,117.07675617658458,3.339704246109594e-07
392,122.87837801469472,3.3181414602941175e-07
393,128.89518766688926,3.289489703106114e-07
394,135.23590831364044,3.2561225054869786e-07
395,141.87468911739384,3.2176648066047907e-07
396,148.8406734960661,3.1743960914283435e-07
397,156.15149444201006,3.127243535281244e-07
398,163.8270162830307,3.0763677052291113e-07
399,171.8662185913298,3.02209596447492e-07
400,180.31455802389124,2.964644153449247e-07
401,189.17346317963242,2.9050907190984774e-07
402,198.43836254201744,2.8423624670259535e-07
403,208.20199258934673,2.779139402793374e-07
404,218.43602624594226,2.7139736372934415e-07
405,229.13378311115176,2.6477665896605396e-07
406,240.41940162805233,2.5809369553177847e-07
407,252.20562841704583,2.5135808843494707e-07
408,264.5844788541219,2.44641743445134e-07
409,277.61819903497087,2.380505497477532e-07
410,291.2480259241203,2.3141895621410062e-07
411,305.5305184329985,2.2475721042449355e-07
412,320.538480683581,2.1826609442891769e-07
413,336.2741712227277,2.1181516965326098e-07
414,352.82949658079673,2.056258614162743e-07
415,370.102345949448,1.9961098704385e-07
416,388.3003015542434,1.9385166612031615e-07
417,407.44096917612796,1.8842720035749627e-07
418,427.38464544667596,1.8323573557312484e-07
419,448.40609755768287,1.790321889577064e-07
420,470.35009803248636,1.75645637857979e-07
421,493.56801417626673,1.7306811478562162e-07
422,517.6796890142306,1.7114107993304454e-07
423,543.0761504786481,1.701310737676146e-07
424,569.7807323518381,1.6989234258367835e-07
425,597.8027273296162,1.7034616756650305e-07
426,627.1334685785498,1.715010308610031e-07
427,658.0906901035903,1.7334806443118084e-07
428,690.3356642985513,1.7571671387960867e-07
429,724.2072820380669,1.7870497568343314e-07
430,759.7076386005494,1.8222495935491484e-07
431,797.3266073576549,1.863786820145039e-07
432,836.036998476307,1.9088022353259916e-07
433,877.4542580066884,1.9607054595716166e-07
434,920.4475614685377,2.0165015632067396e-07
435,965.6097093840892,2.0770061531836694e-07
436,1012.9435181340659,2.1412702343341493e-07
437,1062.4189055069771,2.2077639662920379e-07
438,1114.9666105004128,2.277661705564358e-07
439,1169.663077928482,2.3485243214822155e-07
440,1227.567198914525,2.4230118517257714e-07
441,1287.4796170473537,2.497845144924654e-07
442,1350.7384941301189,2.5766583358131466e-07
443,1417.1252273170392,2.658084317405728e-07
444,1486.8004183378464,2.7431444930788654e-07
445,1559.7469648226431,2.8308112358991124e-07
