,E (eV),I (erg/s/cm**2)
0,0.010734900437064,2.7901754526274735e-05
1,0.011265522892127998,2.774397091054593e-05
2,0.011809751051167999,2.7494582996517342e-05
3,0.012394796322136,2.721834384376289e-05
4,0.013007053001056,2.689498375092722e-05
5,0.013646521087927998,2.6542023213913896e-05
6,0.014313200582752,2.615558440382934e-05
7,0.015007091485528,2.5740959020013777e-05
8,0.015755405204207998,2.5334577109579433e-05
9,0.016530930330839997,2.490896318073579e-05
10,0.017333666865423997,2.4469995977178642e-05
11,0.018190826215912,2.4055010921469525e-05
12,0.019075196974352,2.36247626169512e-05
13,0.020013990548696,2.3206321421154e-05
14,0.020993601234968,2.279209291626664e-05
15,0.022027634737144,2.2395360092458894e-05
16,0.023116091055223997,2.202696680584863e-05
17,0.024245364485232,2.16590944202717e-05
18,0.025442666435119998,2.1321665846228097e-05
19,0.026694391200912,2.1007967244630057e-05
20,0.028000538782607998,2.0700114312895435e-05
21,0.029374714884183997,2.041287007661298e-05
22,0.03081691950564,2.0150959854625305e-05
23,0.032340758350952,1.9919030421251727e-05
24,0.033919020012168,1.9705861716663894e-05
25,0.035592521601215996,1.9531731708690237e-05
26,0.037334051710144,1.9375692699143285e-05
27,0.039170821746904,1.9245843468144646e-05
28,0.04108922600752,1.9152151434740086e-05
29,0.043116475899943996,1.9088291363579853e-05
30,0.045238965720199996,1.906572722290729e-05
31,0.047443089764311996,1.9057620169433745e-05
32,0.049769665144208,1.9084831086048453e-05
33,0.052232297563863994,1.9140385670392022e-05
34,0.054790169911352,1.9228653709704552e-05
35,0.05748409929859999,1.9335686617400506e-05
36,0.060300480021632,1.9458507803661963e-05
37,0.063252917784424,1.9604013027272258e-05
38,0.066368623994928,1.976704534983936e-05
39,0.069647598653144,1.992465078752935e-05
40,0.07306263035112,2.0077984002065608e-05
41,0.07662732479283199,2.0228688314081035e-05
42,0.08040971049816,2.039647820893833e-05
43,0.084341758947224,2.0571225447756648e-05
44,0.088491498659904,2.0774017868671482e-05
45,0.09287253534017599,2.101234778017543e-05
46,0.097389629060208,2.1273818128742607e-05
47,0.10221965397168799,2.1605196798818704e-05
48,0.10725376444280799,2.201416130745343e-05
49,0.112505566177544,2.2538309172144707e-05
50,0.11796145347192,2.3197590117256613e-05
51,0.12373027195774398,2.403128425967274e-05
52,0.129880050154896,2.5059962673676704e-05
53,0.13626112531964,2.625390874037061e-05
54,0.14295513167583201,2.765660370076511e-05
55,0.14997567492744798,2.9288246547723113e-05
56,0.157336360778464,3.117507792087923e-05
57,0.165064400636832,3.3348322986683805e-05
58,0.173159794502552,3.5841481090188274e-05
59,0.18166335948755197,3.868349288365793e-05
60,0.190602306999784,4.189584017500802e-05
61,0.19993581992731999,4.549049793066614e-05
62,0.209786349605944,4.952295995591569e-05
63,0.220058656107824,5.398728012871996e-05
64,0.23088879647271998,5.8945381653991436e-05
65,0.24224955929268,6.444413412587986e-05
66,0.254113733159752,7.050350793276807e-05
67,0.266630980817672,7.722517315945789e-05
68,0.279678850930656,8.456498957556484e-05
69,0.293447823354368,9.246425944537813e-05
70,0.307883475272904,0.00010084848718223529
71,0.322958595278312,0.00010990795239242804
72,0.33885005752228,0.00011974338341824198
73,0.355462622076976,0.00013036633521875583
74,0.37289152887023197,0.00014174380078244676
75,0.391245623533856,0.00015395135220093822
76,0.410402454732064,0.00016685157477973016
77,0.43064774224835195,0.0001804474244556778
78,0.45183182333898403,0.00019467818715515584
79,0.47394109229998393,0.0002095326015736185
80,0.497329297434728,0.0002251617208999526
81,0.521601873327912,0.00024011319251681363
82,0.5473982880664079,0.00025298623730860443
83,0.574269553419008,0.0002640091423772668
84,0.602446966353304,0.00027421731999325763
85,0.631930526869296,0.0002837971412463233
86,0.6630195604544559,0.0002925211043946153
87,0.695754884220712,0.0002997759178702521
88,0.72974193275276,0.0003046633983680272
89,0.765334454353976,0.00030859325891742447
90,0.80300864866352,0.0003125601447326843
91,0.8428597556092239,0.00031731519633165886
92,0.8837040789451759,0.00032221989545710674
93,0.9273375715962079,0.0003262951826776868
94,0.9731887939953279,0.0003294174015362769
95,1.020441403903976,0.0003314591586176823
96,1.070673662983368,0.0003328104852207552
97,1.123042017586992,0.00033339172474246926
98,1.178553289809072,0.0003334339351242602
99,1.236132629035504,0.00033270934013057165
100,1.297317479815576,0.00033305489934643126
101,1.360964963015304,0.00033277078629549174
102,1.4278914208732478,0.0003330384657602493
103,1.497933584941696,0.0003340818368694873
104,1.571608471971736,0.00033475465592152
105,1.648725602107704,0.0003345985635819426
106,1.7296931464688798,0.0003340544026962689
107,1.8147560077268319,0.00033349879735539617
108,1.903941397289512,0.0003316650930131721
109,1.9971676809330638,0.00032878937679554356
110,2.095387257935808,0.00032490329350548796
111,2.1983008028102717,0.0003200203060628644
112,2.306262063859832,0.0003145036936209767
113,2.419679212203768,0.00030820757912570796
114,2.5385794592500317,0.0003022945183537848
115,2.662894776478744,0.00029508967622387627
116,2.7937000145040076,0.00028624083022813553
117,2.93107680754968,0.0002777837399185553
118,3.0750115499117836,0.000268626496029883
119,3.226238949605024,0.0002617411693023746
120,3.384772612333376,0.0002614383484170255
121,3.5505172981690083,0.0002631283727791522
122,3.725486651300368,0.0002640961057007003
123,3.9087146667451598,0.0002646143557996808
124,4.10001086464772,0.00026473306559525586
125,4.302028357283368,0.00026457452420050056
126,4.513447391366432,0.0002642739440591173
127,4.73403666992932,0.0002633808584082095
128,4.967320070301816,0.00026171914007409717
129,5.211610485190896,0.0002590714138874672
130,5.466676617628968,0.00025447574589174577
131,5.734708985956168,0.0002477851226911208
132,6.0157348015804475,0.00023963796396256123
133,6.312842559304359,0.0002303733366295122
134,6.6230934270690875,0.00021935706472932113
135,6.9459023596036635,0.0002068537078611457
136,7.288902156838623,0.00019334841267093004
137,7.648623364260087,0.00017913862178450194
138,8.024875502012392,0.00016624919351983063
139,8.41712794764047,0.0001526104291098719
140,8.830795771326777,0.00013684667948277843
141,9.266382384118415,0.0001209591530453644
142,9.716635945796183,0.0001045161588085478
143,10.196063546387911,6.453362338723699e-05
144,10.196083938617031,9.158030353736243e-05
145,10.697525568241927,5.3275377237369876e-05
146,11.220297532111775,4.10823867873213e-05
147,11.277346248883143,3.9469653867046476e-05
148,11.332490167097871,3.8164421749424015e-05
149,11.387552451088743,3.691008751898021e-05
150,11.4427371864154,3.5705838830060315e-05
151,11.497799470406273,3.454821745589404e-05
152,11.552984205732928,3.3447652655163265e-05
153,11.608032884019822,3.238624805648272e-05
154,11.66317680223455,3.1358847020110436e-05
155,11.718293509041327,3.0342103541793207e-05
156,11.774389826534374,2.9337054629309977e-05
157,11.831234457746103,2.800676738587449e-05
158,11.889099516756032,2.6873538133534893e-05
159,11.946842124430175,2.5854588747867533e-05
160,12.00467997203215,2.4878309070669616e-05
161,12.062490608226176,2.394245536951539e-05
162,12.084220438593553,2.390363091434475e-05
163,12.084244607766095,2.354016655729876e-05
164,12.120382878644056,2.3387495625745033e-05
165,12.178247937653984,2.2498933059283822e-05
166,12.236058573848007,2.1669551743918767e-05
167,12.293814787226127,2.0874489306176493e-05
168,12.349026733960736,2.010854904126318e-05
169,12.412334074561063,1.9084136363931447e-05
170,12.47298830288607,1.8235853025612058e-05
171,12.53366974261903,1.7480134555426468e-05
172,12.594337576648016,1.674243519961761e-05
173,12.654991804973022,1.602209822823618e-05
174,12.715659639002007,1.531875007522721e-05
175,12.749008076606534,1.5057580154129242e-05
176,12.749033573695785,1.493752127456198e-05
177,12.776327473030992,1.4784594481429444e-05
178,12.836995307059976,1.418413516888032e-05
179,12.897663141088959,1.3598420945795322e-05
180,12.958222129486135,1.302886050732029e-05
181,12.968018236348854,1.2844252372643238e-05
182,12.97773270898772,1.2747719697694583e-05
183,12.987433575922607,1.2653777243763234e-05
184,12.99714804856147,1.256241832727878e-05
185,13.00684891549636,1.2473504088638431e-05
186,13.016563388135223,1.2386987458052195e-05
187,13.026250649366135,1.2302795677244193e-05
188,13.035965122004999,1.2220906690010135e-05
189,13.045679594643863,1.2141300008506808e-05
190,13.055081687122291,1.2126606329036692e-05
191,13.05510779646822,1.2063161137317356e-05
192,13.071979420429471,1.1997921308866852e-05
193,13.088578379280191,1.1876148406532095e-05
194,13.105177338130911,1.1760080722092477e-05
195,13.121776296981631,1.1649462149907747e-05
196,13.138388861536328,1.1544166906938377e-05
197,13.154987820387047,1.1443832547734743e-05
198,13.171586779237767,1.1348331037453113e-05
199,13.188185738088487,1.1257441305487895e-05
200,13.204798302643184,1.1170992706510737e-05
201,13.220744572744477,1.1127559638693186e-05
202,13.220771014069586,1.1087410117865296e-05
203,13.231451876732168,1.1081009454261638e-05
204,13.241520097674407,1.103460127228792e-05
205,13.25157471291267,1.0989588235025369e-05
206,13.261642933854912,1.0945956056457224e-05
207,13.271697549093174,1.0903685527390337e-05
208,13.28175216433144,1.0862670161052185e-05
209,13.29182038527368,1.0823004830267033e-05
210,13.301875000511943,1.0784508870959853e-05
211,13.311943221454182,1.074728813078714e-05
212,13.321603555636356,1.073885558191081e-05
213,13.321630198325881,1.0710542291999245e-05
214,13.328501363192975,1.0717767645041497e-05
215,13.33501849539748,1.0695536400478299e-05
216,13.341508416194031,1.067378353495331e-05
217,13.348025548398535,1.0652472299815869e-05
218,13.354529074899064,1.0631611270693329e-05
219,13.361032601399591,1.0611212045942436e-05
220,13.36753612790012,1.0591234714863653e-05
221,13.374039654400647,1.0571720569361736e-05
222,13.380543180901174,1.0552589006429063e-05
223,13.386325824142808,1.0555115757977307e-05
224,13.386352597447093,1.0534799418187488e-05
225,13.391454955489928,1.0544145317226076e-05
226,13.395876809282127,1.0531874605316618e-05
227,13.400271451666375,1.0519775715931516e-05
228,13.404693305458576,1.0507891610252905e-05
229,13.4091015535468,1.0496149697257273e-05
230,13.413509801635023,1.0484601581463978e-05
231,13.417918049723248,1.0473247460472628e-05
232,13.422339903515448,1.0462057357624593e-05
233,13.426748151603672,1.0451010206215546e-05
234,13.43127902518069,1.0459964832158738e-05
235,13.43130588828262,1.0439580004419934e-05
236,13.434367345830232,1.045081765768404e-05
237,13.437564686264592,1.0443097295130165e-05
238,13.440789238106902,1.0435515721591347e-05
239,13.444000184245239,1.0427959605194311e-05
240,13.447197524679599,1.0420510723646009e-05
241,13.450408470817935,1.0413149393674264e-05
242,13.45361941695627,1.0405865119702016e-05
243,13.456830363094607,1.0398657960643416e-05
244,13.460041309232944,1.039156887088828e-05
245,13.463374849566955,1.039905154031489e-05
246,13.463401775255123,1.038270873187568e-05
247,13.594764990003295,1.0174202166941173e-05
248,14.203715482857126,9.79697654515282e-06
249,14.900164257980615,9.444296366389437e-06
250,15.632872234200144,9.124947830724947e-06
251,16.40004345859088,8.820282844801168e-06
252,17.20570521952972,8.532118511862632e-06
253,18.04983030560871,8.265147766154237e-06
254,18.93757527863476,8.021422517895393e-06
255,19.86609654647688,7.79297047556242e-06
256,20.844700410654657,7.587814804820413e-06
257,21.866720076219845,7.395083064814439e-06
258,22.94305371205723,7.215323681997553e-06
259,24.06994614386943,7.029233055565819e-06
260,25.251383842921417,6.851740231902849e-06
261,26.49237370827635,6.670064729082771e-06
262,27.792929345638214,6.479832330607561e-06
263,29.159050870460426,6.2755944778063795e-06
264,30.590738282742972,6.054830075445419e-06
265,32.087025577503574,5.814753946136976e-06
266,33.66394027402595,5.6279441702854474e-06
267,35.32315587389915,5.42985739736204e-06
268,37.05448170484515,5.217482719327999e-06
269,38.87873449394723,4.989996907634954e-06
270,40.78426779125562,3.826786280143662e-06
271,40.7843493601721,4.7599467291098334e-06
272,42.782700770004766,3.5424110221476863e-06
273,44.88931273372077,3.2667260888670896e-06
274,45.109466629756426,3.2484258288706967e-06
275,45.32981100564775,3.221746564441622e-06
276,45.5503050442828,3.1938060457054277e-06
277,45.77075826580593,3.165051071313471e-06
278,45.99130672725689,3.1355552803206736e-06
279,46.21175994878002,3.1053992631333475e-06
280,46.432240381711104,3.0746587344649165e-06
281,46.65272081464218,3.043698194357804e-06
282,46.873187641869286,3.012747663617111e-06
283,47.088606752921294,2.9817951378867156e-06
284,47.32495143668839,2.966319061929482e-06
285,47.55622119287244,2.939256449279023e-06
286,47.787531766168414,2.910746648275813e-06
287,48.018883156576315,2.881168318199023e-06
288,48.25023454698422,2.8506560551904757e-06
289,48.3557528481015,2.9635911841507173e-06
290,48.355849560166504,2.8372365009866477e-06
291,48.481545120280195,2.946905634815878e-06
292,48.7127876650563,2.915224705381523e-06
293,48.94412544976022,2.883263872834937e-06
294,49.175327177424386,2.8511908761357674e-06
295,49.41582160090417,2.8198490146800122e-06
296,49.649322692540274,2.81049900919873e-06
297,49.89207566288007,2.78344528335456e-06
298,50.134570124844316,2.7545484079444383e-06
299,50.37739112370399,2.7242791138202377e-06
300,50.619885585668236,2.692787602290085e-06
301,50.86263855600803,2.6604649746436578e-06
302,51.001297707061994,2.705762745733647e-06
303,51.0013997090247,2.642230645729245e-06
304,51.105201046492155,2.6906222134312487e-06
305,51.347967622535926,2.6574392997267463e-06
306,51.590693381467766,2.624023472431553e-06
307,51.832902123648516,2.590810656887175e-06
308,51.8721409739153,2.6087699225169813e-06
309,51.91102607587871,2.6051575522058322e-06
310,51.94973430369043,2.6014648432750825e-06
311,51.98851056002203,2.597703947698948e-06
312,52.02734123916953,2.5938898328312072e-06
313,52.066239946836916,2.590007229953398e-06
314,52.10496178035261,2.5860596530224152e-06
315,52.14375164238819,2.5820433378465217e-06
316,52.18259592723967,2.5779891598893447e-06
317,52.225850657500565,2.6136255591931853e-06
318,52.22595510848999,2.5739581879188456e-06
319,52.288012921645716,2.605837352651325e-06
320,52.35424548860089,2.598559299843897e-06
321,52.420654929707744,2.5911357988675973e-06
322,52.48722763926231,2.583597483664615e-06
323,52.55352823473736,2.5759065799147706e-06
324,52.61999209866011,2.5681000722198617e-06
325,52.686401539766976,2.560182925113496e-06
326,52.752756558057925,2.5521388406169576e-06
327,52.819057153532974,2.54399959003738e-06
328,52.894271013032856,2.5635014669572863e-06
329,52.89437680282356,2.5361839533223224e-06
330,52.92569866129686,2.5578039315963907e-06
331,52.965944333657866,2.552748091522652e-06
332,53.00625803453875,2.547684882164132e-06
333,53.046626158235554,2.542581387450387e-06
334,53.08683101348463,2.537443237552836e-06
335,53.127090291549614,2.5322808375835233e-06
336,53.167186301166886,2.5270837816403165e-06
337,53.20756803056765,2.521873379374711e-06
338,53.247786491520706,2.516644438307577e-06
339,53.28068622525324,2.5304224644994772e-06
340,53.28079278784792,2.5110000588289363e-06
341,53.31396463565997,2.5279368243217837e-06
342,53.34011479870185,2.524525185781641e-06
343,53.36606087618408,2.521099345215033e-06
344,53.39202055937028,2.517669620819766e-06
345,53.41802105966842,2.514237289678976e-06
346,53.444035165670535,2.5108010627764954e-06
347,53.4700764830806,2.5073453278837763e-06
348,53.49615861760259,2.5038869456228134e-06
349,53.52225435782855,2.5004246338053455e-06
350,53.55686813406628,2.5126194396194574e-06
351,53.556975249052535,2.4979783377770665e-06
352,53.56595587899947,2.510034693354387e-06
353,53.58354805424043,2.5076841392931906e-06
354,53.60115383518538,2.505315848715817e-06
355,53.6187732218343,2.5029623895317095e-06
356,53.63639260848322,2.5005905442124954e-06
357,53.65403920654009,2.498234170029476e-06
358,53.67168580459697,2.495859396953321e-06
359,53.68935961406179,2.4935000985580055e-06
360,53.70703342352662,2.4911223877124544e-06
361,53.71930647192786,2.500652871828415e-06
362,53.71941391072988,2.489231890772865e-06
363,53.73752380613683,2.4993782116865532e-06
364,53.75034037928222,2.497655144689762e-06
365,53.76315695242761,2.495914635889505e-06
366,53.77597352557301,2.4941893531693964e-06
367,53.78881731012635,2.492464225623611e-06
368,53.80164748897572,2.490721012162229e-06
369,53.814491273529065,2.4889936643176074e-06
370,53.82734866378638,2.4872658365665414e-06
371,53.84019244833972,2.485519911943944e-06
372,53.85932263140612,2.4940783988798273e-06
373,53.859430350485646,2.4842641613758133e-06
374,54.37901918643951,2.422309247959169e-06
375,54.379127944994806,2.4223140926006916e-06
376,57.05673053100986,2.0700243572727855e-06
377,59.837981326375825,1.989108634945666e-06
378,62.77685420230376,1.979981577287647e-06
379,65.87900913164766,1.9883449964998653e-06
380,69.11052709439538,1.997050140657775e-06
381,72.50543595619087,2.0041628597173953e-06
382,76.06398061970572,2.0089217178503366e-06
383,79.78397056659978,2.0111693233534585e-06
384,83.71660406093474,2.012367219773355e-06
385,87.80756713243842,2.0114532098623504e-06
386,92.18162408657074,2.01109713088371e-06
387,96.63622680824096,2.0066849142429946e-06
388,101.46014275863574,2.0051194441622575e-06
389,106.42427909420718,2.0003909428133404e-06
390,111.59701808313864,1.994196806568958e-06
391,117.07675617658458,1.98788531386777e-06
392,122.87837801469472,1.9807292049127983e-06
393,128.89518766688926,1.971187245424667e-06
394,135.23590831364044,1.960083840048019e-06
395,141.87468911739384,1.9468079139185966e-06
396,148.8406734960661,1.9315922077267865e-06
397,156.15149444201006,1.914019181181453e-06
398,163.8270162830307,1.8941066533847288e-06
399,171.8662185913298,1.8721641665176914e-06
400,180.31455802389124,1.8480400537023011e-06
401,189.17346317963242,1.8215735038953955e-06
402,198.43836254201744,1.7926057730472122e-06
403,208.20199258934673,1.7625045244204311e-06
404,218.43602624594226,1.7309961472171404e-06
405,229.13378311115176,1.6974112400806477e-06
406,240.41940162805233,1.6626698303037253e-06
407,252.20562841704583,1.6269305542790293e-06
408,264.5844788541219,1.5902115298427197e-06
409,277.61819903497087,1.5529803759746953e-06
410,291.2480259241203,1.5150640650249298e-06
411,305.5305184329985,1.4761006385479483e-06
412,320.538480683581,1.4375758831446494e-06
413,336.2741712227277,1.3998397609744112e-06
414,352.82949658079673,1.361547674900846e-06
415,370.102345949448,1.322493074575087e-06
416,388.3003015542434,1.2848719686157264e-06
417,407.44096917612796,1.2479278447523731e-06
418,427.38464544667596,1.2105765604866164e-06
419,448.40609755768287,1.1743367097942467e-06
420,470.35009803248636,1.1384810018055398e-06
421,493.56801417626673,1.1039466142998031e-06
422,517.6796890142306,1.0694744507653976e-06
423,543.0761504786481,1.0361328925788174e-06
424,569.7807323518381,1.0036338633701275e-06
425,597.8027273296162,9.71979465459948e-07
426,627.1334685785498,9.417312162867317e-07
427,658.0906901035903,9.136316834448204e-07
428,690.3356642985513,8.881276909004946e-07
429,724.2072820380669,8.648079724907378e-07
430,759.7076386005494,8.437195672529608e-07
431,797.3266073576549,8.314722952862807e-07
432,836.036998476307,8.273847326791797e-07
433,877.4542580066884,8.299804319219116e-07
434,920.4475614685377,8.396030087262667e-07
435,965.6097093840892,8.570327693490628e-07
436,1012.9435181340659,8.81192565760523e-07
437,1062.4189055069771,9.09383110647954e-07
438,1114.9666105004128,9.387774186700973e-07
439,1169.663077928482,9.681265513466863e-07
440,1227.567198914525,9.981495867881075e-07
441,1287.4796170473537,1.02808724213605e-06
442,1350.7384941301189,1.0584902591480025e-06
443,1417.1252273170392,1.0898447120510387e-06
444,1486.8004183378464,1.1221954743971152e-06
