,E (eV),I (erg/s/cm**2)
0,0.010734900437064,4.126223927573697e-05
1,0.011265522892127998,4.111105374726254e-05
2,0.011809751051167999,4.0836381436148576e-05
3,0.012394796322136,4.0486674465915896e-05
4,0.013007053001056,4.0036177141292826e-05
5,0.013646521087927998,3.9537289697342623e-05
6,0.014313200582752,3.8989826099456774e-05
7,0.015007091485528,3.838116068450269e-05
8,0.015755405204207998,3.777686091969988e-05
9,0.016530930330839997,3.713489913136984e-05
10,0.017333666865423997,3.646798366997751e-05
11,0.018190826215912,3.583378579947108e-05
12,0.019075196974352,3.516472885030792e-05
13,0.020013990548696,3.451149740181721e-05
14,0.020993601234968,3.385324296085135e-05
15,0.022027634737144,3.321822239877723e-05
16,0.023116091055223997,3.261901589833032e-05
17,0.024245364485232,3.2024518180116725e-05
18,0.025442666435119998,3.147226311532717e-05
19,0.026694391200912,3.094416796775419e-05
20,0.028000538782607998,3.0433336988956876e-05
21,0.029374714884183997,2.9945421559820782e-05
22,0.03081691950564,2.948669729370377e-05
23,0.032340758350952,2.9067830286345487e-05
24,0.033919020012168,2.8672441059816683e-05
25,0.035592521601215996,2.8324255448192843e-05
26,0.037334051710144,2.800853938260468e-05
27,0.039170821746904,2.7732105923779572e-05
28,0.04108922600752,2.7504686842747485e-05
29,0.043116475899943996,2.7315777274823703e-05
30,0.045238965720199996,2.7189623971134486e-05
31,0.047443089764311996,2.7072776611048542e-05
32,0.049769665144208,2.7039364489416293e-05
33,0.052232297563863994,2.704412701521896e-05
34,0.054790169911352,2.71032452335962e-05
35,0.05748409929859999,2.7195721828389852e-05
36,0.060300480021632,2.7355510501161558e-05
37,0.063252917784424,2.7541716339009336e-05
38,0.066368623994928,2.7748882268869486e-05
39,0.069647598653144,2.7955882832265963e-05
40,0.07306263035112,2.8127825884591324e-05
41,0.07662732479283199,2.8312712926310603e-05
42,0.08040971049816,2.8488612350266335e-05
43,0.084341758947224,2.8651588453953213e-05
44,0.088491498659904,2.879753188734949e-05
45,0.09287253534017599,2.8981575570104197e-05
46,0.097389629060208,2.912462345661139e-05
47,0.10221965397168799,2.9326663052198446e-05
48,0.10725376444280799,2.9597722130438943e-05
49,0.112505566177544,3.0011196152095534e-05
50,0.11796145347192,3.059558548135687e-05
51,0.12373027195774398,3.140007605739258e-05
52,0.129880050154896,3.243587924230374e-05
53,0.13626112531964,3.365269992363164e-05
54,0.14295513167583201,3.509308956554749e-05
55,0.14997567492744798,3.6775501732344025e-05
56,0.157336360778464,3.8742958365731916e-05
57,0.165064400636832,4.103212969586983e-05
58,0.173159794502552,4.3681147383317286e-05
59,0.18166335948755197,4.674255389168534e-05
60,0.190602306999784,5.027037500140881e-05
61,0.19993581992731999,5.4305496935265055e-05
62,0.209786349605944,5.895074446491035e-05
63,0.220058656107824,6.424446215657544e-05
64,0.23088879647271998,7.022652587327207e-05
65,0.24224955929268,7.699436241443778e-05
66,0.254113733159752,8.454861590975082e-05
67,0.266630980817672,9.292622073900777e-05
68,0.279678850930656,0.00010206265952037787
69,0.293447823354368,0.00011172393161397893
70,0.307883475272904,0.000121804016963491
71,0.322958595278312,0.00013277273176567726
72,0.33885005752228,0.00014465989139959498
73,0.355462622076976,0.00015747648447032582
74,0.37289152887023197,0.00017154285723352137
75,0.391245623533856,0.00018700036834650224
76,0.410402454732064,0.00020401283732245112
77,0.43064774224835195,0.00022310577132677366
78,0.45183182333898403,0.0002438282513336473
79,0.47394109229998393,0.0002664160226309802
80,0.497329297434728,0.00029089685416122766
81,0.521601873327912,0.00031507922561590227
82,0.5473982880664079,0.0003356516941699299
83,0.574269553419008,0.0003530009881649919
84,0.602446966353304,0.0003697723539921857
85,0.631930526869296,0.0003857567365672839
86,0.6630195604544559,0.0004005041016117206
87,0.695754884220712,0.0004124561465695386
88,0.72974193275276,0.0004201871469674346
89,0.765334454353976,0.000426263333533181
90,0.80300864866352,0.0004328506610603543
91,0.8428597556092239,0.0004415265524292754
92,0.8837040789451759,0.00045137637022797075
93,0.9273375715962079,0.0004604199727886278
94,0.9731887939953279,0.0004675124881826305
95,1.020441403903976,0.0004725385947047635
96,1.070673662983368,0.00047628010787070183
97,1.123042017586992,0.0004784188311936252
98,1.178553289809072,0.0004791478951919436
99,1.236132629035504,0.00047889411689254344
100,1.297317479815576,0.00048012885242955215
101,1.360964963015304,0.00048052647413948104
102,1.4278914208732478,0.00048246322805492085
103,1.497933584941696,0.0004861027272424349
104,1.571608471971736,0.0004894772072749152
105,1.648725602107704,0.0004921038612733293
106,1.7296931464688798,0.000494406822882172
107,1.8147560077268319,0.0004971602441543305
108,1.903941397289512,0.0004979315289767368
109,1.9971676809330638,0.0004971285667210135
110,2.095387257935808,0.0004945177113675506
111,2.1983008028102717,0.0004901500742131558
112,2.306262063859832,0.0004842992484426512
113,2.419679212203768,0.00047701592873122405
114,2.5385794592500317,0.0004700645049277057
115,2.662894776478744,0.0004600712638437849
116,2.7937000145040076,0.0004462538684109108
117,2.93107680754968,0.00043159346056680705
118,3.0750115499117836,0.00041531992170651036
119,3.226238949605024,0.0004032970676121804
120,3.384772612333376,0.000402853662737626
121,3.5505172981690083,0.00040812408129218137
122,3.725486651300368,0.00041170918839253926
123,3.9087146667451598,0.00041485545095680445
124,4.10001086464772,0.00041908801533240063
125,4.302028357283368,0.00042261335803061266
126,4.513447391366432,0.00042651373424429915
127,4.73403666992932,0.0004295222519005431
128,4.967320070301816,0.00043197242152272805
129,5.211610485190896,0.00043326368482595314
130,5.466676617628968,0.0004312134701610202
131,5.734708985956168,0.0004255212866319654
132,6.0157348015804475,0.00041767562748630933
133,6.312842559304359,0.0004076131060419611
134,6.6230934270690875,0.00039464147156545296
135,6.9459023596036635,0.0003782081873897656
136,7.288902156838623,0.00035945529639174216
137,7.648623364260087,0.00033908049971139917
138,8.024875502012392,0.00031991631251764133
139,8.41712794764047,0.00029770159124560915
140,8.830795771326777,0.00026966845665355355
141,9.266382384118415,0.0002394968705390689
142,9.716635945796183,0.00020696561394002022
143,10.196063546387911,0.00012510166647227062
144,10.196083938617031,0.00018074407675324107
145,10.697525568241927,0.00010235763446916764
146,11.220297532111775,7.74258094540302e-05
147,11.277346248883143,7.421222867467295e-05
148,11.332490167097871,7.154042804670653e-05
149,11.387552451088743,6.897181608455604e-05
150,11.4427371864154,6.650540182747143e-05
151,11.497799470406273,6.41339194657124e-05
152,11.552984205732928,6.187141039574815e-05
153,11.608032884019822,5.968910931297496e-05
154,11.66317680223455,5.7582303611014915e-05
155,11.718293509041327,5.5499766230048545e-05
156,11.774389826534374,5.345068245930068e-05
157,11.831234457746103,5.086727472565631e-05
158,11.889099516756032,4.855006969865789e-05
159,11.946842124430175,4.647168390131091e-05
160,12.00467997203215,4.448180409714889e-05
161,12.062490608226176,4.257457887396096e-05
162,12.084220438593553,4.255654105993687e-05
163,12.084244607766095,4.17488213623493e-05
164,12.120382878644056,4.1515702196779515e-05
165,12.178247937653984,3.971124795115815e-05
166,12.236058573848007,3.802850493058665e-05
167,12.293814787226127,3.6415928005969205e-05
168,12.349026733960736,3.48625730866334e-05
169,12.412334074561063,3.294240139893364e-05
170,12.47298830288607,3.122962124346656e-05
171,12.53366974261903,2.970764841998081e-05
172,12.594337576648016,2.8226494911845315e-05
173,12.654991804973022,2.6783414443052052e-05
174,12.715659639002007,2.5378389366064927e-05
175,12.749008076606534,2.4866119634631654e-05
176,12.749033573695785,2.4618243700402527e-05
177,12.776327473030992,2.4321129019331944e-05
178,12.836995307059976,2.312431041787616e-05
179,12.897663141088959,2.1959333372652398e-05
180,12.958222129486135,2.0824914842500646e-05
181,12.968018236348854,2.0561482218166902e-05
182,12.97773270898772,2.037139812661559e-05
183,12.987433575922607,2.0186312737528565e-05
184,12.99714804856147,2.0006201514741547e-05
185,13.00684891549636,1.9830915570062844e-05
186,13.016563388135223,1.9660270785069902e-05
187,13.026250649366135,1.9494216482461524e-05
188,13.035965122004999,1.93326474023368e-05
189,13.045679594643863,1.9175453700177317e-05
190,13.055081687122291,1.9143932663106498e-05
191,13.05510779646822,1.902099890115896e-05
192,13.071979420429471,1.8892818638795642e-05
193,13.088578379280191,1.8652695711740994e-05
194,13.105177338130911,1.842376940472509e-05
195,13.121776296981631,1.8205566491499878e-05
196,13.138388861536328,1.7997629750541676e-05
197,13.154987820387047,1.7799563116667442e-05
198,13.171586779237767,1.7610984864617142e-05
199,13.188185738088487,1.7431452098202177e-05
200,13.204798302643184,1.726069778259061e-05
201,13.220744572744477,1.7173399803408458e-05
202,13.220771014069586,1.7097107775097382e-05
203,13.231451876732168,1.7081289754984124e-05
204,13.241520097674407,1.698975736518946e-05
205,13.25157471291267,1.690102830950175e-05
206,13.261642933854912,1.6815063584485835e-05
207,13.271697549093174,1.6731714215431855e-05
208,13.28175216433144,1.6651003872925208e-05
209,13.29182038527368,1.6572834688996455e-05
210,13.301875000511943,1.6497138273091695e-05
211,13.311943221454182,1.6423833079140315e-05
212,13.321603555636356,1.6409845658351506e-05
213,13.321630198325881,1.635320893945061e-05
214,13.328501363192975,1.6364114208174684e-05
215,13.33501849539748,1.632049453604172e-05
216,13.341508416194031,1.627780467357415e-05
217,13.348025548398535,1.6236031493333174e-05
218,13.354529074899064,1.6195167133918155e-05
219,13.361032601399591,1.6155148423969462e-05
220,13.36753612790012,1.6116017286271057e-05
221,13.374039654400647,1.6077775082847566e-05
222,13.380543180901174,1.60403825198754e-05
223,13.386325824142808,1.604621643906565e-05
224,13.386352597447093,1.6001506143224878e-05
225,13.391454955489928,1.602257936447474e-05
226,13.395876809282127,1.59986446566717e-05
227,13.400271451666375,1.59750653879851e-05
228,13.404693305458576,1.5951866167606427e-05
229,13.4091015535468,1.592899870035705e-05
230,13.413509801635023,1.590652031878878e-05
231,13.417918049723248,1.5884390658677383e-05
232,13.422339903515448,1.5862585380118448e-05
233,13.426748151603672,1.5841154206892667e-05
234,13.43127902518069,1.5855233463912038e-05
235,13.43130588828262,1.581853483310627e-05
236,13.434367345830232,1.5839897468650884e-05
237,13.437564686264592,1.5824926111157702e-05
238,13.440789238106902,1.5810141210024643e-05
239,13.444000184245239,1.579553565409068e-05
240,13.447197524679599,1.578110964854037e-05
241,13.450408470817935,1.5766854424664824e-05
242,13.45361941695627,1.575275411295091e-05
243,13.456830363094607,1.573884971807208e-05
244,13.460041309232944,1.5725100490873458e-05
245,13.463374849566955,1.5741758588490425e-05
246,13.463401775255123,1.571315375828929e-05
247,13.594764990003295,1.531293846271993e-05
248,14.203715482857126,1.4712728211310806e-05
249,14.900164257980615,1.4175499482918346e-05
250,15.632872234200144,1.370404710558018e-05
251,16.40004345859088,1.3245373897772524e-05
252,17.20570521952972,1.2782493728124898e-05
253,18.04983030560871,1.2356587867784374e-05
254,18.93757527863476,1.1968837042462559e-05
255,19.86609654647688,1.158985539256444e-05
256,20.844700410654657,1.1204377619351573e-05
257,21.866720076219845,1.081688700069891e-05
258,22.94305371205723,1.0498818807531699e-05
259,24.06994614386943,1.0231918680483209e-05
260,25.251383842921417,9.989883293439326e-06
261,26.49237370827635,9.80465705934817e-06
262,27.792929345638214,9.610386019730369e-06
263,29.159050870460426,9.400544601026864e-06
264,30.590738282742972,9.181702715030334e-06
265,32.087025577503574,8.934675579800936e-06
266,33.66394027402595,8.66183773604031e-06
267,35.32315587389915,8.34388444522385e-06
268,37.05448170484515,7.98385195533056e-06
269,38.87873449394723,7.583046911261352e-06
270,40.78426779125562,5.644757611475192e-06
271,40.7843493601721,7.356168649731595e-06
272,42.782700770004766,5.2063692269553666e-06
273,44.88931273372077,4.749369620304936e-06
274,45.109466629756426,4.715286178178209e-06
275,45.32981100564775,4.6697261080081635e-06
276,45.5503050442828,4.622877714799988e-06
277,45.77075826580593,4.575490854220068e-06
278,45.99130672725689,4.527469320205705e-06
279,46.21175994878002,4.476688376897266e-06
280,46.432240381711104,4.4231868312535445e-06
281,46.65272081464218,4.369186982565727e-06
282,46.873187641869286,4.315459690367737e-06
283,47.088606752921294,4.2623645470341e-06
284,47.32495143668839,4.237440481365532e-06
285,47.55622119287244,4.188541951476835e-06
286,47.787531766168414,4.13776476189715e-06
287,48.018883156576315,4.0858937175634905e-06
288,48.25023454698422,4.032831352049908e-06
289,48.3557528481015,4.250703666362305e-06
290,48.355849560166504,4.009745422766395e-06
291,48.481545120280195,4.222222638419885e-06
292,48.7127876650563,4.16759874984678e-06
293,48.94412544976022,4.11152946467897e-06
294,49.175327177424386,4.055299633545279e-06
295,49.41582160090417,4.000041414088449e-06
296,49.649322692540274,4.0047012295937465e-06
297,49.89207566288007,3.953909447901356e-06
298,50.134570124844316,3.900005840326217e-06
299,50.37739112370399,3.844317675256353e-06
300,50.619885585668236,3.786363421378639e-06
301,50.86263855600803,3.7270773668829316e-06
302,51.001297707061994,3.8122430435202253e-06
303,51.0013997090247,3.694473818353864e-06
304,51.105201046492155,3.7855518773781477e-06
305,51.347967622535926,3.7245870643475295e-06
306,51.590693381467766,3.662888522194684e-06
307,51.832902123648516,3.6019355452995954e-06
308,51.8721409739153,3.6339314684715812e-06
309,51.91102607587871,3.6270338436142935e-06
310,51.94973430369043,3.620062123911507e-06
311,51.98851056002203,3.6130017278028665e-06
312,52.02734123916953,3.605883113743692e-06
313,52.066239946836916,3.598691266452288e-06
314,52.10496178035261,3.591409124426612e-06
315,52.14375164238819,3.5840851676047004e-06
316,52.18259592723967,3.5766707887648084e-06
317,52.225850657500565,3.641937254583886e-06
318,52.22595510848999,3.5689469567343436e-06
319,52.288012921645716,3.629494483601617e-06
320,52.35424548860089,3.616609003149764e-06
321,52.420654929707744,3.603548093772448e-06
322,52.48722763926231,3.5903579470038133e-06
323,52.55352823473736,3.5770083971315723e-06
324,52.61999209866011,3.5635448348727167e-06
325,52.686401539766976,3.549952121825635e-06
326,52.752756558057925,3.5362300107661052e-06
327,52.819057153532974,3.522394305038357e-06
328,52.894271013032856,3.5599722569005277e-06
329,52.89437680282356,3.5085485232237263e-06
330,52.92569866129686,3.5504925727210426e-06
331,52.965944333657866,3.5420554622240452e-06
332,53.00625803453875,3.5335898559802904e-06
333,53.046626158235554,3.5250947696818106e-06
334,53.08683101348463,3.5165718436688057e-06
335,53.127090291549614,3.50803555469579e-06
336,53.167186301166886,3.4994392301749294e-06
337,53.20756803056765,3.4908608585587923e-06
338,53.247786491520706,3.4822547543478058e-06
339,53.28068622525324,3.50988861401297e-06
340,53.28079278784792,3.4726596557701784e-06
341,53.31396463565997,3.5052607976728395e-06
342,53.34011479870185,3.4997029022487565e-06
343,53.36606087618408,3.4941245083343973e-06
344,53.39202055937028,3.488556148503782e-06
345,53.41802105966842,3.4829671501634126e-06
346,53.444035165670535,3.4773881818457244e-06
347,53.4700764830806,3.471803898042279e-06
348,53.49615861760259,3.4661989144496386e-06
349,53.52225435782855,3.4606039563550312e-06
350,53.55686813406628,3.484143925058711e-06
351,53.556975249052535,3.4548586395290857e-06
352,53.56595587899947,3.480015029484884e-06
353,53.58354805424043,3.476224629813314e-06
354,53.60115383518538,3.4724318720024826e-06
355,53.6187732218343,3.468636752198432e-06
356,53.63639260848322,3.464854686191057e-06
357,53.65403920654009,3.4610711414515177e-06
358,53.67168580459697,3.4572680501783566e-06
359,53.68935961406179,3.4534797732350265e-06
360,53.70703342352662,3.4496882532394933e-06
361,53.71930647192786,3.468594877781244e-06
362,53.71941391072988,3.445749849915284e-06
363,53.73752380613683,3.466244229961596e-06
364,53.75034037928222,3.4634778499666763e-06
365,53.76315695242761,3.460726092937515e-06
366,53.77597352557301,3.457972629592367e-06
367,53.78881731012635,3.455219208391321e-06
368,53.80164748897572,3.45247955354021e-06
369,53.814491273529065,3.4497227187279247e-06
370,53.82734866378638,3.446965045714715e-06
371,53.84019244833972,3.4442211508548543e-06
372,53.85932263140612,3.461270218858255e-06
373,53.859430350485646,3.4416386897564265e-06
374,54.37901918643951,3.347611552625429e-06
375,54.379127944994806,3.3476182478803575e-06
376,57.05673053100986,2.7721682972161916e-06
377,59.837981326375825,2.623659744289296e-06
378,62.77685420230376,2.5999180054960478e-06
379,65.87900913164766,2.6062873100599283e-06
380,69.11052709439538,2.61863462222695e-06
381,72.50543595619087,2.630505061667098e-06
382,76.06398061970572,2.6371142202335575e-06
383,79.78397056659978,2.642447640012329e-06
384,83.71660406093474,2.6480524280070815e-06
385,87.80756713243842,2.6483200110671583e-06
386,92.18162408657074,2.6505587955146346e-06
387,96.63622680824096,2.6479784249806752e-06
388,101.46014275863574,2.648829376607196e-06
389,106.42427909420718,2.6461686202238516e-06
390,111.59701808313864,2.642200564174738e-06
391,117.07675617658458,2.6388928525328665e-06
392,122.87837801469472,2.6356206331425442e-06
393,128.89518766688926,2.6299468215368977e-06
394,135.23590831364044,2.6228962581390854e-06
395,141.87468911739384,2.6137060185692693e-06
396,148.8406734960661,2.6022902283108867e-06
397,156.15149444201006,2.587769115882459e-06
398,163.8270162830307,2.570608872103467e-06
399,171.8662185913298,2.5505299274545393e-06
400,180.31455802389124,2.5268783655553966e-06
401,189.17346317963242,2.5004243428828123e-06
402,198.43836254201744,2.470334965708142e-06
403,208.20199258934673,2.4381523462397103e-06
404,218.43602624594226,2.4026863695815414e-06
405,229.13378311115176,2.3644005625318214e-06
406,240.41940162805233,2.3245234622927783e-06
407,252.20562841704583,2.2821475224132796e-06
408,264.5844788541219,2.238194589632702e-06
409,277.61819903497087,2.1923932630016888e-06
410,291.2480259241203,2.14516080257997e-06
411,305.5305184329985,2.0971769449562848e-06
412,320.538480683581,2.047279475835951e-06
413,336.2741712227277,1.9975815563717744e-06
414,352.82949658079673,1.947978051179671e-06
415,370.102345949448,1.8971478036310775e-06
416,388.3003015542434,1.8464872642424441e-06
417,407.44096917612796,1.7963723240257873e-06
418,427.38464544667596,1.7453496001013155e-06
419,448.40609755768287,1.6949470555460614e-06
420,470.35009803248636,1.6464098845569401e-06
421,493.56801417626673,1.5972057388714612e-06
422,517.6796890142306,1.5490784512348428e-06
423,543.0761504786481,1.5019719044419813e-06
424,569.7807323518381,1.4560222167354292e-06
425,597.8027273296162,1.411014107128795e-06
426,627.1334685785498,1.36686321597443e-06
427,658.0906901035903,1.3241560531693912e-06
428,690.3356642985513,1.2822684398665314e-06
429,724.2072820380669,1.2415385700507115e-06
430,759.7076386005494,1.2031371775786298e-06
431,797.3266073576549,1.168955077134983e-06
432,836.036998476307,1.1388289089938319e-06
433,877.4542580066884,1.1141947396445895e-06
434,920.4475614685377,1.092994189808109e-06
435,965.6097093840892,1.089115247958572e-06
436,1012.9435181340659,1.1040299454122012e-06
437,1062.4189055069771,1.1308374285998116e-06
438,1114.9666105004128,1.1677970992292328e-06
439,1169.663077928482,1.2051825022357902e-06
440,1227.567198914525,1.243210976470419e-06
441,1287.4796170473537,1.2808057956031373e-06
442,1350.7384941301189,1.3195215912251364e-06
443,1417.1252273170392,1.3589687517212158e-06
444,1486.8004183378464,1.3991301870330216e-06
445,1559.7469648226431,1.44028718353041e-06
