,E (eV),I (erg/s/cm**2)
0,0.010734900437064,3.7935165435451886e-05
1,0.011265522892127998,3.779067721731384e-05
2,0.011809751051167999,3.749913760292294e-05
3,0.012394796322136,3.71724164615828e-05
4,0.013007053001056,3.675977133057063e-05
5,0.013646521087927998,3.62988394351826e-05
6,0.014313200582752,3.5793225743238583e-05
7,0.015007091485528,3.523023018011169e-05
8,0.015755405204207998,3.4679455134272634e-05
9,0.016530930330839997,3.409097259679656e-05
10,0.017333666865423997,3.348165398260853e-05
11,0.018190826215912,3.290429228588252e-05
12,0.019075196974352,3.229567647856901e-05
13,0.020013990548696,3.170192703613186e-05
14,0.020993601234968,3.110390289630022e-05
15,0.022027634737144,3.053425963492047e-05
16,0.023116091055223997,2.9992075337448936e-05
17,0.024245364485232,2.946078863347126e-05
18,0.025442666435119998,2.89674698819017e-05
19,0.026694391200912,2.848647913288357e-05
20,0.028000538782607998,2.8034063568070207e-05
21,0.029374714884183997,2.7597986126428057e-05
22,0.03081691950564,2.7192559206919408e-05
23,0.032340758350952,2.6827307865830603e-05
24,0.033919020012168,2.6477175083004488e-05
25,0.035592521601215996,2.6172087892973423e-05
26,0.037334051710144,2.5898540063436875e-05
27,0.039170821746904,2.5673026815805035e-05
28,0.04108922600752,2.5482099790107412e-05
29,0.043116475899943996,2.533751234771363e-05
30,0.045238965720199996,2.522394336902722e-05
31,0.047443089764311996,2.51554819968453e-05
32,0.049769665144208,2.5133905912910332e-05
33,0.052232297563863994,2.5171352964193707e-05
34,0.054790169911352,2.522200031993136e-05
35,0.05748409929859999,2.534424686362771e-05
36,0.060300480021632,2.548661427327871e-05
37,0.063252917784424,2.5677413137015065e-05
38,0.066368623994928,2.5873412756521217e-05
39,0.069647598653144,2.607240548694236e-05
40,0.07306263035112,2.6240797309278695e-05
41,0.07662732479283199,2.6403467487119993e-05
42,0.08040971049816,2.6582856124726732e-05
43,0.084341758947224,2.675515057677661e-05
44,0.088491498659904,2.6915340263981236e-05
45,0.09287253534017599,2.7099325240620127e-05
46,0.097389629060208,2.728398986968409e-05
47,0.10221965397168799,2.7528300638232894e-05
48,0.10725376444280799,2.7844410688295152e-05
49,0.112505566177544,2.8298517118297618e-05
50,0.11796145347192,2.891096444682383e-05
51,0.12373027195774398,2.973457872252161e-05
52,0.129880050154896,3.0778369900757643e-05
53,0.13626112531964,3.200070346147445e-05
54,0.14295513167583201,3.3438123965929556e-05
55,0.14997567492744798,3.512584478043851e-05
56,0.157336360778464,3.709360981598412e-05
57,0.165064400636832,3.938201715224394e-05
58,0.173159794502552,4.201850675388943e-05
59,0.18166335948755197,4.5064502831206225e-05
60,0.190602306999784,4.8561877226167274e-05
61,0.19993581992731999,5.25558623944481e-05
62,0.209786349605944,5.7121282557578454e-05
63,0.220058656107824,6.227861370980208e-05
64,0.23088879647271998,6.809377224036561e-05
65,0.24224955929268,7.456528598333879e-05
66,0.254113733159752,8.17689353807884e-05
67,0.266630980817672,8.976656720219691e-05
68,0.279678850930656,9.849344079502477e-05
69,0.293447823354368,0.00010771149991420129
70,0.307883475272904,0.00011750064924505648
71,0.322958595278312,0.00012806239095603493
72,0.33885005752228,0.00013951185256960534
73,0.355462622076976,0.00015186003920736207
74,0.37289152887023197,0.00016542441978149665
75,0.391245623533856,0.00018034301259092412
76,0.410402454732064,0.00019665540615051733
77,0.43064774224835195,0.00021460027270366465
78,0.45183182333898403,0.00023394332223193714
79,0.47394109229998393,0.00025460731245390645
80,0.497329297434728,0.0002768431360202277
81,0.521601873327912,0.0002985962077798907
82,0.5473982880664079,0.000317189187668762
83,0.574269553419008,0.00033293419941820803
84,0.602446966353304,0.00034798873518343624
85,0.631930526869296,0.000362330991559039
86,0.6630195604544559,0.00037552296041591237
87,0.695754884220712,0.00038624160935693807
88,0.72974193275276,0.0003931355206220089
89,0.765334454353976,0.0003985899365160278
90,0.80300864866352,0.0004047910071317652
91,0.8428597556092239,0.0004125865869568274
92,0.8837040789451759,0.00042103399672984814
93,0.9273375715962079,0.00042857942391767603
94,0.9731887939953279,0.00043439332397636
95,1.020441403903976,0.0004384314783321722
96,1.070673662983368,0.00044114469006815445
97,1.123042017586992,0.0004429298452097791
98,1.178553289809072,0.00044333714074199366
99,1.236132629035504,0.0004428362068891433
100,1.297317479815576,0.0004438629620793786
101,1.360964963015304,0.00044413548469435466
102,1.4278914208732478,0.00044515042451835185
103,1.497933584941696,0.0004484161113364542
104,1.571608471971736,0.00045117860040855447
105,1.648725602107704,0.00045282773110049253
106,1.7296931464688798,0.00045425302119859974
107,1.8147560077268319,0.0004559140305514286
108,1.903941397289512,0.0004557574747544219
109,1.9971676809330638,0.00045416384196441604
110,2.095387257935808,0.0004509043944071305
111,2.1983008028102717,0.0004461314181092568
112,2.306262063859832,0.0004400108495218907
113,2.419679212203768,0.0004327552029542851
114,2.5385794592500317,0.0004257886555541114
115,2.662894776478744,0.00041629733595432956
116,2.7937000145040076,0.00040355542905721385
117,2.93107680754968,0.00039026878747476604
118,3.0750115499117836,0.0003758902238829764
119,3.226238949605024,0.00036526127222113
120,3.384772612333376,0.0003652114772871199
121,3.5505172981690083,0.0003689622939827975
122,3.725486651300368,0.0003715231113858363
123,3.9087146667451598,0.00037494951583384923
124,4.10001086464772,0.00037747820645841145
125,4.302028357283368,0.00037973764461401706
126,4.513447391366432,0.00038207950601640734
127,4.73403666992932,0.0003837794266323488
128,4.967320070301816,0.0003848810883497875
129,5.211610485190896,0.00038480656222504117
130,5.466676617628968,0.00038171361887657287
131,5.734708985956168,0.0003755112091390091
132,6.0157348015804475,0.0003672255297759795
133,6.312842559304359,0.00035716498981036826
134,6.6230934270690875,0.00034412897314587245
135,6.9459023596036635,0.00032861057357393185
136,7.288902156838623,0.00031095208636580966
137,7.648623364260087,0.00029190206143244813
138,8.024875502012392,0.0002740746457890961
139,8.41712794764047,0.00025376247323300003
140,8.830795771326777,0.00022858762007632808
141,9.266382384118415,0.00020233065033281106
142,9.716635945796183,0.00017463646311880965
143,10.196063546387911,0.00010617221668610935
144,10.196083938617031,0.0001523343547114476
145,10.697525568241927,8.691785156469381e-05
146,11.220297532111775,6.603865826185455e-05
147,11.277346248883143,6.334011814810862e-05
148,11.332490167097871,6.110239861980914e-05
149,11.387552451088743,5.895226638817556e-05
150,11.4427371864154,5.688755741334928e-05
151,11.497799470406273,5.490265695871236e-05
152,11.552984205732928,5.301463407856873e-05
153,11.608032884019822,5.119575270051387e-05
154,11.66317680223455,4.943736484867063e-05
155,11.718293509041327,4.769946227007119e-05
156,11.774389826534374,4.597331121961842e-05
157,11.831234457746103,4.3831934033009195e-05
158,11.889099516756032,4.190226526140945e-05
159,11.946842124430175,4.016912195525568e-05
160,12.00467997203215,3.8510213272662696e-05
161,12.062490608226176,3.691986199968018e-05
162,12.084220438593553,3.690191869364504e-05
163,12.084244607766095,3.62373894493266e-05
164,12.120382878644056,3.6024911026789184e-05
165,12.178247937653984,3.451950812618287e-05
166,12.236058573848007,3.311565471423921e-05
167,12.293814787226127,3.177021284380425e-05
168,12.349026733960736,3.0476140202805004e-05
169,12.412334074561063,2.883380847677633e-05
170,12.47298830288607,2.7408430778681382e-05
171,12.53366974261903,2.614108233330188e-05
172,12.594337576648016,2.4907558677451317e-05
173,12.654991804973022,2.3706396073483005e-05
174,12.715659639002007,2.2536987428088275e-05
175,12.749008076606534,2.211182596283128e-05
176,12.749033573695785,2.1902682910115306e-05
177,12.776327473030992,2.165930649377489e-05
178,12.836995307059976,2.0663404332180566e-05
179,12.897663141088959,1.9694308061730224e-05
180,12.958222129486135,1.8749904422657093e-05
181,12.968018236348854,1.8478559130132176e-05
182,12.97773270898772,1.8320117536810187e-05
183,12.987433575922607,1.8165897747683613e-05
184,12.99714804856147,1.801575062860129e-05
185,13.00684891549636,1.786956888662282e-05
186,13.016563388135223,1.7727320446790727e-05
187,13.026250649366135,1.7588840258867258e-05
188,13.035965122004999,1.7454052709298063e-05
189,13.045679594643863,1.7322929421598173e-05
190,13.055081687122291,1.7299355645188658e-05
191,13.05510779646822,1.7196252395301656e-05
192,13.071979420429471,1.7089426583037955e-05
193,13.088578379280191,1.688893137326602e-05
194,13.105177338130911,1.669766844066775e-05
195,13.121776296981631,1.6515356038339087e-05
196,13.138388861536328,1.6341568043468825e-05
197,13.154987820387047,1.617598483706443e-05
198,13.171586779237767,1.6018296330491325e-05
199,13.188185738088487,1.586813342046818e-05
200,13.204798302643184,1.572526155342765e-05
201,13.220744572744477,1.5654909714500815e-05
202,13.220771014069586,1.5586649005233957e-05
203,13.231451876732168,1.5577008285793943e-05
204,13.241520097674407,1.550034470491107e-05
205,13.25157471291267,1.542598686398651e-05
206,13.261642933854912,1.5353931838703957e-05
207,13.271697549093174,1.5284072874669642e-05
208,13.28175216433144,1.5216390778190785e-05
209,13.29182038527368,1.5150825505045042e-05
210,13.301875000511943,1.5087351000204362e-05
211,13.311943221454182,1.5025881904998594e-05
212,13.321603555636356,1.5013349170396786e-05
213,13.321630198325881,1.4964805310487438e-05
214,13.328501363192975,1.4977181405737046e-05
215,13.33501849539748,1.4940541651984484e-05
216,13.341508416194031,1.4904679837601895e-05
217,13.348025548398535,1.4869576985716908e-05
218,13.354529074899064,1.4835229195013242e-05
219,13.361032601399591,1.4801612252508909e-05
220,13.36753612790012,1.4768727289609101e-05
221,13.374039654400647,1.4736575432752023e-05
222,13.380543180901174,1.4705117143583456e-05
223,13.386325824142808,1.4712082350139973e-05
224,13.386352597447093,1.4675504363634659e-05
225,13.391454955489928,1.4691270695468464e-05
226,13.395876809282127,1.467112959113662e-05
227,13.400271451666375,1.4651267971193853e-05
228,13.404693305458576,1.4631745715716068e-05
229,13.4091015535468,1.4612477771850254e-05
230,13.413509801635023,1.459356081187706e-05
231,13.417918049723248,1.4574872887193537e-05
232,13.422339903515448,1.4556551344904377e-05
233,13.426748151603672,1.4538485416778408e-05
234,13.43127902518069,1.4549268289634604e-05
235,13.43130588828262,1.4520729341389857e-05
236,13.434367345830232,1.4538285576593577e-05
237,13.437564686264592,1.452565842246608e-05
238,13.440789238106902,1.451321636057676e-05
239,13.444000184245239,1.4500915378055133e-05
240,13.447197524679599,1.4488714787589497e-05
241,13.450408470817935,1.4476684872192053e-05
242,13.45361941695627,1.4464811081515762e-05
243,13.456830363094607,1.4453052640192818e-05
244,13.460041309232944,1.4441450536277762e-05
245,13.463374849566955,1.4457217996644686e-05
246,13.463401775255123,1.4428610597550408e-05
247,13.594764990003295,1.4094347461262554e-05
248,14.203715482857126,1.3547449063764265e-05
249,14.900164257980615,1.3052687643549945e-05
250,15.632872234200144,1.2616273522380083e-05
251,16.40004345859088,1.2193916452952756e-05
252,17.20570521952972,1.1773487065208072e-05
253,18.04983030560871,1.1385830633076191e-05
254,18.93757527863476,1.103089452384245e-05
255,19.86609654647688,1.0690434323369012e-05
256,20.844700410654657,1.034298962762346e-05
257,21.866720076219845,1.000628490333001e-05
258,22.94305371205723,9.738944138412998e-06
259,24.06994614386943,9.507858673458525e-06
260,25.251383842921417,9.307011088150749e-06
261,26.49237370827635,9.112374213729147e-06
262,27.792929345638214,8.892562810334033e-06
263,29.159050870460426,8.685536165513482e-06
264,30.590738282742972,8.452966643180539e-06
265,32.087025577503574,8.19564414361604e-06
266,33.66394027402595,7.904898680948927e-06
267,35.32315587389915,7.585056775373342e-06
268,37.05448170484515,7.227238146963379e-06
269,38.87873449394723,6.982924176008342e-06
270,40.78426779125562,5.238285493437279e-06
271,40.7843493601721,6.7439807589507555e-06
272,42.782700770004766,4.846278272110329e-06
273,44.88931273372077,4.431562864476881e-06
274,45.109466629756426,4.401691287893574e-06
275,45.32981100564775,4.360232824997021e-06
276,45.5503050442828,4.3173045116866135e-06
277,45.77075826580593,4.273598468010362e-06
278,45.99130672725689,4.229055292685949e-06
279,46.21175994878002,4.1834013711754074e-06
280,46.432240381711104,4.136048627824194e-06
281,46.65272081464218,4.087532131976204e-06
282,46.873187641869286,4.039053897082501e-06
283,47.088606752921294,3.99051182377281e-06
284,47.32495143668839,3.982471321035632e-06
285,47.55622119287244,3.93784674448586e-06
286,47.787531766168414,3.891077535404518e-06
287,48.018883156576315,3.84313355417813e-06
288,48.25023454698422,3.793651753144576e-06
289,48.3557528481015,3.981820579949335e-06
290,48.355849560166504,3.771717295787733e-06
291,48.481545120280195,3.954245791598741e-06
292,48.7127876650563,3.903006220817e-06
293,48.94412544976022,3.850930143439066e-06
294,49.175327177424386,3.798415129399351e-06
295,49.41582160090417,3.74628503342474e-06
296,49.649322692540274,3.734795445517139e-06
297,49.89207566288007,3.692007327673056e-06
298,50.134570124844316,3.647372402989558e-06
299,50.37739112370399,3.601573770650642e-06
300,50.619885585668236,3.5546174489383605e-06
301,50.86263855600803,3.507047509553861e-06
302,51.001297707061994,3.5844382765558585e-06
303,51.0013997090247,3.4806158535776684e-06
304,51.105201046492155,3.5623918852918127e-06
305,51.347967622535926,3.5148614879091634e-06
306,51.590693381467766,3.4673616134171663e-06
307,51.832902123648516,3.420815043379733e-06
308,51.8721409739153,3.437936821737762e-06
309,51.91102607587871,3.4323749674604546e-06
310,51.94973430369043,3.4266945419446033e-06
311,51.98851056002203,3.4209431264758268e-06
312,52.02734123916953,3.41511965328048e-06
313,52.066239946836916,3.409209026199475e-06
314,52.10496178035261,3.4031950368684685e-06
315,52.14375164238819,3.397125241269637e-06
316,52.18259592723967,3.3909669032613776e-06
317,52.225850657500565,3.448335360936784e-06
318,52.22595510848999,3.3848660998099447e-06
319,52.288012921645716,3.437854683092029e-06
320,52.35424548860089,3.426985394359925e-06
321,52.420654929707744,3.415945759120939e-06
322,52.48722763926231,3.4047341938233364e-06
323,52.55352823473736,3.3933538318584915e-06
324,52.61999209866011,3.381800498818342e-06
325,52.686401539766976,3.3701076040674774e-06
326,52.752756558057925,3.3582748336373565e-06
327,52.819057153532974,3.3463018736788964e-06
328,52.894271013032856,3.378357419157555e-06
329,52.89437680282356,3.334969393053562e-06
330,52.92569866129686,3.371021259166226e-06
331,52.965944333657866,3.363654716918398e-06
332,53.00625803453875,3.3562612857690733e-06
333,53.046626158235554,3.3488239130419072e-06
334,53.08683101348463,3.3413449233265326e-06
335,53.127090291549614,3.333838033749064e-06
336,53.167186301166886,3.3262895563510325e-06
337,53.20756803056765,3.3187437199549013e-06
338,53.247786491520706,3.311140083384237e-06
339,53.28068622525324,3.335041764215884e-06
340,53.28079278784792,3.30266932293105e-06
341,53.31396463565997,3.331179520635746e-06
342,53.34011479870185,3.3262655807465226e-06
343,53.36606087618408,3.3213325185986573e-06
344,53.39202055937028,3.3163777089113343e-06
345,53.41802105966842,3.3114352705252633e-06
346,53.444035165670535,3.306471051840019e-06
347,53.4700764830806,3.301502110504221e-06
348,53.49615861760259,3.2965292745470793e-06
349,53.52225435782855,3.2915508569293705e-06
350,53.55686813406628,3.311645440465431e-06
351,53.556975249052535,3.2872418514145912e-06
352,53.56595587899947,3.308398741739003e-06
353,53.58354805424043,3.3050241444254257e-06
354,53.60115383518538,3.3016311692717207e-06
355,53.6187732218343,3.2982523806683677e-06
356,53.63639260848322,3.2948706580296725e-06
357,53.65403920654009,3.2914713681232175e-06
358,53.67168580459697,3.2880854376491397e-06
359,53.68935961406179,3.2846982334565147e-06
360,53.70703342352662,3.2812917670475983e-06
361,53.71930647192786,3.297205483362542e-06
362,53.71941391072988,3.277624679858987e-06
363,53.73752380613683,3.295662115870588e-06
364,53.75034037928222,3.293198028393338e-06
365,53.76315695242761,3.2907160546173647e-06
366,53.77597352557301,3.288248863932479e-06
367,53.78881731012635,3.2857817846722968e-06
368,53.80164748897572,3.283312322054924e-06
369,53.814491273529065,3.2808421370870532e-06
370,53.82734866378638,3.278371227649671e-06
371,53.84019244833972,3.2758979359680283e-06
372,53.85932263140612,3.2910706431931325e-06
373,53.859430350485646,3.273075311396521e-06
374,54.37901918643951,3.1889883004996853e-06
375,54.379127944994806,3.1889946785066014e-06
376,57.05673053100986,2.6664132844977736e-06
377,59.837981326375825,2.532749843062082e-06
378,62.77685420230376,2.5121731576030644e-06
379,65.87900913164766,2.5182100124642573e-06
380,69.11052709439538,2.5283368763810555e-06
381,72.50543595619087,2.5379747329007225e-06
382,76.06398061970572,2.544664992802609e-06
383,79.78397056659978,2.545477084829853e-06
384,83.71660406093474,2.5488458527730048e-06
385,87.80756713243842,2.5474672034449687e-06
386,92.18162408657074,2.547483065068229e-06
387,96.63622680824096,2.542857968270325e-06
388,101.46014275863574,2.5415443875873495e-06
389,106.42427909420718,2.536868241893716e-06
390,111.59701808313864,2.5306394774349712e-06
391,117.07675617658458,2.525055468651863e-06
392,122.87837801469472,2.519502483576895e-06
393,128.89518766688926,2.5112761013511765e-06
394,135.23590831364044,2.501675140533429e-06
395,141.87468911739384,2.489982841135901e-06
396,148.8406734960661,2.475658100299679e-06
397,156.15149444201006,2.45871279008769e-06
398,163.8270162830307,2.4391912223696956e-06
399,171.8662185913298,2.416841217050166e-06
400,180.31455802389124,2.3910011247712878e-06
401,189.17346317963242,2.3630447064327955e-06
402,198.43836254201744,2.331653725153811e-06
403,208.20199258934673,2.2983413272043913e-06
404,218.43602624594226,2.261976560292774e-06
405,229.13378311115176,2.2237618952283386e-06
406,240.41940162805233,2.1835325670438916e-06
407,252.20562841704583,2.141141765675129e-06
408,264.5844788541219,2.0975034787595966e-06
409,277.61819903497087,2.052363527709519e-06
410,291.2480259241203,2.0062209319667786e-06
411,305.5305184329985,1.9597788981550326e-06
412,320.538480683581,1.9118980071331827e-06
413,336.2741712227277,1.8637282655516249e-06
414,352.82949658079673,1.815039538051928e-06
415,370.102345949448,1.7666978062569373e-06
416,388.3003015542434,1.7178820810036679e-06
417,407.44096917612796,1.6700939114252996e-06
418,427.38464544667596,1.6219803949001058e-06
419,448.40609755768287,1.5750472637276538e-06
420,470.35009803248636,1.5277883389790672e-06
421,493.56801417626673,1.4830767653607985e-06
422,517.6796890142306,1.4377109102296764e-06
423,543.0761504786481,1.3935566613867304e-06
424,569.7807323518381,1.3504129953306358e-06
425,597.8027273296162,1.3083849915284502e-06
426,627.1334685785498,1.2673926180779146e-06
427,658.0906901035903,1.227573846432507e-06
428,690.3356642985513,1.1885053133279028e-06
429,724.2072820380669,1.151756979063659e-06
430,759.7076386005494,1.1179572814529685e-06
431,797.3266073576549,1.0890058179999106e-06
432,836.036998476307,1.062873110707632e-06
433,877.4542580066884,1.04114153113562e-06
434,920.4475614685377,1.0337017721387853e-06
435,965.6097093840892,1.0415838176372724e-06
436,1012.9435181340659,1.059400912175217e-06
437,1062.4189055069771,1.0891936867436969e-06
438,1114.9666105004128,1.1251099990210856e-06
439,1169.663077928482,1.1611121305893e-06
440,1227.567198914525,1.197331903409117e-06
441,1287.4796170473537,1.2334699672777458e-06
442,1350.7384941301189,1.2706808230037108e-06
443,1417.1252273170392,1.3085887316308627e-06
444,1486.8004183378464,1.3471766926555573e-06
445,1559.7469648226431,1.3867325761498077e-06
