,E (eV),I (erg/s/cm**2)
0,0.010734900437064,5.450529789145046e-05
1,0.011265522892127998,5.446102123673334e-05
2,0.011809751051167999,5.4221241070877204e-05
3,0.012394796322136,5.378136848887669e-05
4,0.013007053001056,5.323665409825748e-05
5,0.013646521087927998,5.257816814774898e-05
6,0.014313200582752,5.184146426091319e-05
7,0.015007091485528,5.098032273707112e-05
8,0.015755405204207998,5.012339802714727e-05
9,0.016530930330839997,4.9195076708435535e-05
10,0.017333666865423997,4.822369417720521e-05
11,0.018190826215912,4.7280919900670884e-05
12,0.019075196974352,4.628158231657689e-05
13,0.020013990548696,4.528759843260789e-05
14,0.020993601234968,4.425097916630301e-05
15,0.022027634737144,4.324459699724503e-05
16,0.023116091055223997,4.22768855869328e-05
17,0.024245364485232,4.13217212938919e-05
18,0.025442666435119998,4.0416848822378556e-05
19,0.026694391200912,3.9533912098232915e-05
20,0.028000538782607998,3.8669140800611396e-05
21,0.029374714884183997,3.781780958275297e-05
22,0.03081691950564,3.699648809850848e-05
23,0.032340758350952,3.62119521963315e-05
24,0.033919020012168,3.54540608347406e-05
25,0.035592521601215996,3.475912829707996e-05
26,0.037334051710144,3.4111655702545394e-05
27,0.039170821746904,3.3504668747805765e-05
28,0.04108922600752,3.294819272193894e-05
29,0.043116475899943996,3.245140542612372e-05
30,0.045238965720199996,3.1986984316028555e-05
31,0.047443089764311996,3.157049029650026e-05
32,0.049769665144208,3.121322612235034e-05
33,0.052232297563863994,3.0932513822914834e-05
34,0.054790169911352,3.0682605011019076e-05
35,0.05748409929859999,3.053187010450417e-05
36,0.060300480021632,3.0433692531904003e-05
37,0.063252917784424,3.0424659433471182e-05
38,0.066368623994928,3.04713380119515e-05
39,0.069647598653144,3.0516565516287394e-05
40,0.07306263035112,3.0569862861442e-05
41,0.07662732479283199,3.061777754854956e-05
42,0.08040971049816,3.06875618471114e-05
43,0.084341758947224,3.072741909879949e-05
44,0.088491498659904,3.0787277325175406e-05
45,0.09287253534017599,3.07876328604033e-05
46,0.097389629060208,3.071668273416177e-05
47,0.10221965397168799,3.060943278605752e-05
48,0.10725376444280799,3.0484154679951683e-05
49,0.112505566177544,3.0455603885714477e-05
50,0.11796145347192,3.057049538124226e-05
51,0.12373027195774398,3.090381048169465e-05
52,0.129880050154896,3.145321299327574e-05
53,0.13626112531964,3.215389611526404e-05
54,0.14295513167583201,3.3042843467252124e-05
55,0.14997567492744798,3.414607614568306e-05
56,0.157336360778464,3.5487287752779186e-05
57,0.165064400636832,3.7104962165677246e-05
58,0.173159794502552,3.901943977345254e-05
59,0.18166335948755197,4.125576851837627e-05
60,0.190602306999784,4.3847581696874726e-05
61,0.19993581992731999,4.681487407806454e-05
62,0.209786349605944,5.025601960729163e-05
63,0.220058656107824,5.425474250315479e-05
64,0.23088879647271998,5.8945381653991436e-05
65,0.24224955929268,6.450302083143627e-05
66,0.254113733159752,7.10517226947239e-05
67,0.266630980817672,7.881310159477321e-05
68,0.279678850930656,8.778578457992678e-05
69,0.293447823354368,9.71900123273786e-05
70,0.307883475272904,0.000106929332873346
71,0.322958595278312,0.00011756225622433
72,0.33885005752228,0.00012911281411706304
73,0.355462622076976,0.00014138320863269163
74,0.37289152887023197,0.0001544338932439032
75,0.391245623533856,0.00016833599594471999
76,0.410402454732064,0.00018343697048086557
77,0.43064774224835195,0.00020046805964677169
78,0.45183182333898403,0.00021993967265283444
79,0.47394109229998393,0.00024294261091504685
80,0.497329297434728,0.0002707985260670246
81,0.521601873327912,0.0003011320566810262
82,0.5473982880664079,0.0003281668942871804
83,0.574269553419008,0.00035090706236154265
84,0.602446966353304,0.0003739826332825209
85,0.631930526869296,0.00039708558052241463
86,0.6630195604544559,0.0004198443398549342
87,0.695754884220712,0.0004393049064679268
88,0.72974193275276,0.00045256040471603013
89,0.765334454353976,0.0004613783162143442
90,0.80300864866352,0.00047018220064296197
91,0.8428597556092239,0.0004825034946854592
92,0.8837040789451759,0.0004983667717146639
93,0.9273375715962079,0.0005150842780017518
94,0.9731887939953279,0.0005307937484644857
95,1.020441403903976,0.0005454037980144028
96,1.070673662983368,0.000558913405309439
97,1.123042017586992,0.0005712361794247383
98,1.178553289809072,0.0005812085455205569
99,1.236132629035504,0.000588570259743537
100,1.297317479815576,0.0005979929960202115
101,1.360964963015304,0.0006050001992694766
102,1.4278914208732478,0.0006134919106145891
103,1.497933584941696,0.000625834503744154
104,1.571608471971736,0.0006379917549730581
105,1.648725602107704,0.0006487575082889653
106,1.7296931464688798,0.0006616968109207252
107,1.8147560077268319,0.0006771437221248554
108,1.903941397289512,0.0006907519990244199
109,1.9971676809330638,0.0007039418181186546
110,2.095387257935808,0.0007143670298320729
111,2.1983008028102717,0.0007240701559942019
112,2.306262063859832,0.0007315995013417765
113,2.419679212203768,0.0007359632316370256
114,2.5385794592500317,0.0007426618072323128
115,2.662894776478744,0.0007424576005370274
116,2.7937000145040076,0.0007311364977445587
117,2.93107680754968,0.000714364660936599
118,3.0750115499117836,0.0006898328418097994
119,3.226238949605024,0.000670822030488861
120,3.384772612333376,0.0006801305264113126
121,3.5505172981690083,0.0007034018001017677
122,3.725486651300368,0.0007236889856787996
123,3.9087146667451598,0.0007450295573586911
124,4.10001086464772,0.0007672898592877431
125,4.302028357283368,0.0007903248878673601
126,4.513447391366432,0.0008142160901006215
127,4.73403666992932,0.0008381869262618467
128,4.967320070301816,0.0008619827042806994
129,5.211610485190896,0.000885213449751797
130,5.466676617628968,0.000906611371382432
131,5.734708985956168,0.0009174322580065893
132,6.0157348015804475,0.00092382171615869
133,6.312842559304359,0.0009343451480456302
134,6.6230934270690875,0.0009341793527725666
135,6.9459023596036635,0.0009258924766516408
136,7.288902156838623,0.0009102657229455915
137,7.648623364260087,0.000890115362555797
138,8.024875502012392,0.0008761122797016042
139,8.41712794764047,0.0008534623798296688
140,8.830795771326777,0.0008108836576316255
141,9.266382384118415,0.0007588103292220518
142,9.716635945796183,0.0006920504978412591
143,10.196063546387911,0.00040089538485828995
144,10.196083938617031,0.0006422394088146041
145,10.697525568241927,0.0003383750317204945
146,11.220297532111775,0.0002556654095649937
147,11.277346248883143,0.00024381208129145592
148,11.332490167097871,0.0002341867785510762
149,11.387552451088743,0.00022486634846140572
150,11.4427371864154,0.0002158479742496081
151,11.497799470406273,0.000207114901867836
152,11.552984205732928,0.00019873335308243326
153,11.608032884019822,0.00019065716202083387
154,11.66317680223455,0.0001828743056066815
155,11.718293509041327,0.00017512531611872363
156,11.774389826534374,0.00016743587276610102
157,11.831234457746103,0.00015718863622705837
158,11.889099516756032,0.00014797813278696355
159,11.946842124430175,0.00013976753342009144
160,12.00467997203215,0.00013184518206987037
161,12.062490608226176,0.00012419741881763968
162,12.084220438593553,0.00013178207578914646
163,12.084244607766095,0.00012091369282195633
164,12.120382878644056,0.0001274727394133545
165,12.178247937653984,0.00012010806002999712
166,12.236058573848007,0.00011329135655923958
167,12.293814787226127,0.0001067099473390187
168,12.349026733960736,0.00010033636898399423
169,12.412334074561063,9.184960750623056e-05
170,12.47298830288607,8.427850380621068e-05
171,12.53366974261903,7.764793303805965e-05
172,12.594337576648016,7.114389781196563e-05
173,12.654991804973022,6.476000665035885e-05
174,12.715659639002007,5.849715619573977e-05
175,12.749008076606534,5.760386336421481e-05
176,12.749033573695785,5.508598354315121e-05
177,12.776327473030992,5.523807769933469e-05
178,12.836995307059976,4.9987313332234197e-05
179,12.897663141088959,4.483845606985872e-05
180,12.958222129486135,3.9807125935195364e-05
181,12.968018236348854,3.897955655215988e-05
182,12.97773270898772,3.810790289136706e-05
183,12.987433575922607,3.7263748314142346e-05
184,12.99714804856147,3.6446328265991493e-05
185,13.00684891549636,3.5654798321085786e-05
186,13.016563388135223,3.488838516489599e-05
187,13.026250649366135,3.41462465648401e-05
188,13.035965122004999,3.342779166055762e-05
189,13.045679594643863,3.273224969950544e-05
190,13.055081687122291,3.297627687893295e-05
191,13.05510779646822,3.2060002736013776e-05
192,13.071979420429471,3.187411946773412e-05
193,13.088578379280191,3.0832449090592315e-05
194,13.105177338130911,2.9846968351732535e-05
195,13.121776296981631,2.8914871010777868e-05
196,13.138388861536328,2.8033404410662345e-05
197,13.154987820387047,2.72000325876296e-05
198,13.171586779237767,2.6412254943313257e-05
199,13.188185738088487,2.5667847780080045e-05
200,13.204798302643184,2.496460101640363e-05
201,13.220744572744477,2.4777901746953475e-05
202,13.220771014069586,2.4299907172630773e-05
203,13.231451876732168,2.4396851438154012e-05
204,13.241520097674407,2.402586220522339e-05
205,13.25157471291267,2.366758412702165e-05
206,13.261642933854912,2.3321693599779512e-05
207,13.271697549093174,2.2987728232763505e-05
208,13.28175216433144,2.2665337175745868e-05
209,13.29182038527368,2.2354247698766015e-05
210,13.301875000511943,2.205403629737167e-05
211,13.311943221454182,2.1764450693688154e-05
212,13.321603555636356,2.1797488617304866e-05
213,13.321630198325881,2.148584976590184e-05
214,13.328501363192975,2.162312720789322e-05
215,13.33501849539748,2.145201325347706e-05
216,13.341508416194031,2.128481325222105e-05
217,13.348025548398535,2.112153932116014e-05
218,13.354529074899064,2.096209168948047e-05
219,13.361032601399591,2.0806416736046933e-05
220,13.36753612790012,2.065435774377758e-05
221,13.374039654400647,2.0505960864199724e-05
222,13.380543180901174,2.0361069040535188e-05
223,13.386325824142808,2.0447231949913272e-05
224,13.386352597447093,2.021949339801029e-05
225,13.391454955489928,2.035346261184744e-05
226,13.395876809282127,2.0261069466608028e-05
227,13.400271451666375,2.017019861712226e-05
228,13.404693305458576,2.008081160370492e-05
229,13.4091015535468,1.999288921307404e-05
230,13.413509801635023,1.9906453455166488e-05
231,13.417918049723248,1.982142430978215e-05
232,13.422339903515448,1.9737864021289883e-05
233,13.426748151603672,1.965565237256371e-05
234,13.43127902518069,1.975272328546021e-05
235,13.43130588828262,1.9573192221666234e-05
236,13.434367345830232,1.9693747971410997e-05
237,13.437564686264592,1.9636495139191573e-05
238,13.440789238106902,1.9579987598650988e-05
239,13.444000184245239,1.9524166228247728e-05
240,13.447197524679599,1.9469031731799215e-05
241,13.450408470817935,1.9414583232441852e-05
242,13.45361941695627,1.936084234375499e-05
243,13.456830363094607,1.93077687025934e-05
244,13.460041309232944,1.925532191135582e-05
245,13.463374849566955,1.9345835851471023e-05
246,13.463401775255123,1.9202692981476815e-05
247,13.594764990003295,1.7725335565972833e-05
248,14.203715482857126,1.6395909206311274e-05
249,14.900164257980615,1.571936576368721e-05
250,15.632872234200144,1.5461585208798514e-05
251,16.40004345859088,1.5318389528135036e-05
252,17.20570521952972,1.4826647120111506e-05
253,18.04983030560871,1.4226803784839845e-05
254,18.93757527863476,1.3838967828846744e-05
255,19.86609654647688,1.3400770299285253e-05
256,20.844700410654657,1.2680137926629498e-05
257,21.866720076219845,1.1627489096916371e-05
258,22.94305371205723,1.114018091229887e-05
259,24.06994614386943,1.0919409999137729e-05
260,25.251383842921417,1.040421025033714e-05
261,26.49237370827635,1.0005902071849689e-05
262,27.792929345638214,9.635720955200862e-06
263,29.159050870460426,9.427124841156496e-06
264,30.590738282742972,9.108271402766451e-06
265,32.087025577503574,8.768929742692594e-06
266,33.66394027402595,8.51965594164778e-06
267,35.32315587389915,8.43618880020458e-06
268,37.05448170484515,8.793383693517781e-06
269,38.87873449394723,9.456658440363771e-06
270,40.78426779125562,5.560489001380047e-06
271,40.7843493601721,1.0938830975191006e-05
272,42.782700770004766,4.640883430855341e-06
273,44.88931273372077,3.281729840856217e-06
274,45.109466629756426,3.0987764116485024e-06
275,45.32981100564775,2.926054450432102e-06
276,45.5503050442828,2.748525628336531e-06
277,45.77075826580593,2.5698751062007704e-06
278,45.99130672725689,2.4865739448635933e-06
279,46.21175994878002,2.65768268416695e-06
280,46.432240381711104,2.5063502635711043e-06
281,46.65272081464218,2.3551046067206346e-06
282,46.873187641869286,2.204822943433897e-06
283,47.088606752921294,2.0560650734533354e-06
284,47.32495143668839,1.8930644094039599e-06
285,47.55622119287244,1.7417023912271472e-06
286,47.787531766168414,1.593919805812013e-06
287,48.018883156576315,1.4535334103941069e-06
288,48.25023454698422,1.3324241853434142e-06
289,48.3557528481015,2.4684348979786955e-06
290,48.355849560166504,1.2931392255028435e-06
291,48.481545120280195,2.4656786733053117e-06
292,48.7127876650563,2.4786381524020355e-06
293,48.94412544976022,2.3279194763173584e-06
294,49.175327177424386,2.182651643610669e-06
295,49.41582160090417,2.051072286430311e-06
296,49.649322692540274,1.9336333354988477e-06
297,49.89207566288007,1.8314046975473052e-06
298,50.134570124844316,1.6984967667674763e-06
299,50.37739112370399,1.5875402377211001e-06
300,50.619885585668236,1.469123650152644e-06
301,50.86263855600803,1.358884124308448e-06
302,51.001297707061994,1.8518822915481021e-06
303,51.0013997090247,1.2969400749366665e-06
304,51.105201046492155,1.7972834626479561e-06
305,51.347967622535926,1.6628264413863894e-06
306,51.590693381467766,1.5166025154467315e-06
307,51.832902123648516,1.371003451057633e-06
308,51.8721409739153,1.387665742341823e-06
309,51.91102607587871,1.3713616107750347e-06
310,51.94973430369043,1.3547948404590057e-06
311,51.98851056002203,1.3379982495303295e-06
312,52.02734123916953,1.320993095194672e-06
313,52.066239946836916,1.303804564426125e-06
314,52.10496178035261,1.2864435999477184e-06
315,52.14375164238819,1.2689398002592611e-06
316,52.18259592723967,1.2513099469022026e-06
317,52.225850657500565,1.5530997780772135e-06
318,52.22595510848999,1.2336591215754996e-06
319,52.288012921645716,1.5214693942960934e-06
320,52.35424548860089,1.4893502741465838e-06
321,52.420654929707744,1.4567660579672186e-06
322,52.48722763926231,1.4237943109102995e-06
323,52.55352823473736,1.3904890980030719e-06
324,52.61999209866011,1.3569220482691587e-06
325,52.686401539766976,1.323139522665735e-06
326,52.752756558057925,1.2891908496445987e-06
327,52.819057153532974,1.2551159782331185e-06
328,52.894271013032856,1.4376501956987345e-06
329,52.89437680282356,1.2211613228981649e-06
330,52.92569866129686,1.4158887526683646e-06
331,52.965944333657866,1.3943470708492194e-06
332,53.00625803453875,1.3727405655322762e-06
333,53.046626158235554,1.3510767891779886e-06
334,53.08683101348463,1.3293566177338103e-06
335,53.127090291549614,1.3075920353235577e-06
336,53.167186301166886,1.2857825283816497e-06
337,53.20756803056765,1.2639421917709437e-06
338,53.247786491520706,1.2420682668816328e-06
339,53.28068622525324,1.3785378941927926e-06
340,53.28079278784792,1.2200449029393335e-06
341,53.31396463565997,1.3641696338460958e-06
342,53.34011479870185,1.3495339321746627e-06
343,53.36606087618408,1.3348667681141238e-06
344,53.39202055937028,1.3201785506780016e-06
345,53.41802105966842,1.3054699236889718e-06
346,53.444035165670535,1.2907401853635088e-06
347,53.4700764830806,1.2759928887906315e-06
348,53.49615861760259,1.2612250751175147e-06
349,53.52225435782855,1.2464409447781432e-06
350,53.55686813406628,1.3550895126753076e-06
351,53.556975249052535,1.2319020206869161e-06
352,53.56595587899947,1.3445543688186587e-06
353,53.58354805424043,1.3342077942666586e-06
354,53.60115383518538,1.3238463283727411e-06
355,53.6187732218343,1.3134748427836207e-06
356,53.63639260848322,1.3030897359623154e-06
357,53.65403920654009,1.2926916573246906e-06
358,53.67168580459697,1.2822831949456862e-06
359,53.68935961406179,1.271863359203344e-06
360,53.70703342352662,1.2614314895955492e-06
361,53.71930647192786,1.3508748803779141e-06
362,53.71941391072988,1.250818621648506e-06
363,53.73752380613683,1.3431263691468848e-06
364,53.75034037928222,1.3353116256692637e-06
365,53.76315695242761,1.3274897356205244e-06
366,53.77597352557301,1.3196574283331476e-06
367,53.78881731012635,1.311818631454558e-06
368,53.80164748897572,1.3039723413911495e-06
369,53.814491273529065,1.2961175823101066e-06
370,53.82734866378638,1.2882559794671009e-06
371,53.84019244833972,1.280386877576866e-06
372,53.85932263140612,1.3558687360245406e-06
373,53.859430350485646,1.272735334862501e-06
374,54.37901918643951,1.0175020702752667e-06
375,54.379127944994806,1.0175041052890798e-06
376,57.05673053100986,6.419849408702744e-07
377,59.837981326375825,5.340047587288788e-07
378,62.77685420230376,5.178853547381648e-07
379,65.87900913164766,5.270625566666905e-07
380,69.11052709439538,5.438864211327561e-07
381,72.50543595619087,5.62231902555468e-07
382,76.06398061970572,5.856658574603318e-07
383,79.78397056659978,6.106720739305155e-07
384,83.71660406093474,6.328870740400139e-07
385,87.80756713243842,6.568772785348557e-07
386,92.18162408657074,6.811961313060917e-07
387,96.63622680824096,7.067735716192945e-07
388,101.46014275863574,7.349638307316827e-07
389,106.42427909420718,7.621922812141015e-07
390,111.59701808313864,7.907612571127497e-07
391,117.07675617658458,8.210521304624727e-07
392,122.87837801469472,8.52404293177489e-07
393,128.89518766688926,8.839597880234392e-07
394,135.23590831364044,9.167603873613791e-07
395,141.87468911739384,9.496939402976105e-07
396,148.8406734960661,9.836602791279899e-07
397,156.15149444201006,1.0177419789832153e-06
398,163.8270162830307,1.0513411964156005e-06
399,171.8662185913298,1.085176328554659e-06
400,180.31455802389124,1.1182477762742445e-06
401,189.17346317963242,1.1507700076849271e-06
402,198.43836254201744,1.1818053533685177e-06
403,208.20199258934673,1.2121172535409676e-06
404,218.43602624594226,1.2411667157687897e-06
405,229.13378311115176,1.2685329282354438e-06
406,240.41940162805233,1.295216875781471e-06
407,252.20562841704583,1.3196299642653692e-06
408,264.5844788541219,1.3417912250742946e-06
409,277.61819903497087,1.3631810360540157e-06
410,291.2480259241203,1.381433998792399e-06
411,305.5305184329985,1.3981179634834447e-06
412,320.538480683581,1.4132266979670142e-06
413,336.2741712227277,1.4243625012943362e-06
414,352.82949658079673,1.433377355367855e-06
415,370.102345949448,1.4383236756980757e-06
416,388.3003015542434,1.4429737532834902e-06
417,407.44096917612796,1.4422975588248248e-06
418,427.38464544667596,1.4375758984271005e-06
419,448.40609755768287,1.4292600169687652e-06
420,470.35009803248636,1.4200285252821939e-06
421,493.56801417626673,1.4064408843350414e-06
422,517.6796890142306,1.389262884088906e-06
423,543.0761504786481,1.3704544787850251e-06
424,569.7807323518381,1.349893605623201e-06
425,597.8027273296162,1.3256412143596608e-06
426,627.1334685785498,1.2995967007723965e-06
427,658.0906901035903,1.2723655943710978e-06
428,690.3356642985513,1.2434626716592064e-06
429,724.2072820380669,1.2138119022766258e-06
430,759.7076386005494,1.1835157922961857e-06
431,797.3266073576549,1.1532074956769555e-06
432,836.036998476307,1.1218087132446622e-06
433,877.4542580066884,1.0915322479743918e-06
434,920.4475614685377,1.0605511690180554e-06
435,965.6097093840892,1.0301410658135458e-06
436,1012.9435181340659,1.0003059165223335e-06
437,1062.4189055069771,9.70718854677167e-07
438,1114.9666105004128,9.425040703348233e-07
439,1169.663077928482,9.21923742346184e-07
440,1227.567198914525,9.16462456960793e-07
441,1287.4796170473537,9.341979963442942e-07
442,1350.7384941301189,9.63681709513913e-07
443,1417.1252273170392,9.951130499521953e-07
444,1486.8004183378464,1.0273238764450255e-06
445,1559.7469648226431,1.060665586261635e-06
446,1636.3242206248435,1.09434346348582e-06
