,E (eV),I (erg/s/cm**2)
0,0.010734900437064,5.36572202471354e-05
1,0.011265522892127998,5.363948478522119e-05
2,0.011809751051167999,5.336001686006846e-05
3,0.012394796322136,5.29528039952181e-05
4,0.013007053001056,5.236716160975363e-05
5,0.013646521087927998,5.1748859501802975e-05
6,0.014313200582752,5.101513219502282e-05
7,0.015007091485528,5.015953042018668e-05
8,0.015755405204207998,4.926167771908639e-05
9,0.016530930330839997,4.834116991912615e-05
10,0.017333666865423997,4.7365190227683376e-05
11,0.018190826215912,4.64186538862625e-05
12,0.019075196974352,4.541796856511597e-05
13,0.020013990548696,4.441188819051932e-05
14,0.020993601234968,4.3377059006229524e-05
15,0.022027634737144,4.236109804007413e-05
16,0.023116091055223997,4.1384849627727665e-05
17,0.024245364485232,4.042294254708526e-05
18,0.025442666435119998,3.950460930946661e-05
19,0.026694391200912,3.860923709475044e-05
20,0.028000538782607998,3.772474594099554e-05
21,0.029374714884183997,3.687169492450581e-05
22,0.03081691950564,3.602264988778762e-05
23,0.032340758350952,3.522926692570786e-05
24,0.033919020012168,3.444403235859473e-05
25,0.035592521601215996,3.3731711629157524e-05
26,0.037334051710144,3.305665603909543e-05
27,0.039170821746904,3.243347152129769e-05
28,0.04108922600752,3.184950346178542e-05
29,0.043116475899943996,3.13247114931422e-05
30,0.045238965720199996,3.084606480687538e-05
31,0.047443089764311996,3.0402814628043893e-05
32,0.049769665144208,3.0018533840404058e-05
33,0.052232297563863994,2.9694578432539928e-05
34,0.054790169911352,2.9417342949542743e-05
35,0.05748409929859999,2.9221864238597404e-05
36,0.060300480021632,2.9096149148854702e-05
37,0.063252917784424,2.9040846744067762e-05
38,0.066368623994928,2.9019361614455564e-05
39,0.069647598653144,2.9035178841587148e-05
40,0.07306263035112,2.903803966585481e-05
41,0.07662732479283199,2.9057784318460056e-05
42,0.08040971049816,2.907499888438674e-05
43,0.084341758947224,2.9112884151920916e-05
44,0.088491498659904,2.912019330949464e-05
45,0.09287253534017599,2.909445415163025e-05
46,0.097389629060208,2.9018091608166784e-05
47,0.10221965397168799,2.8898037812100165e-05
48,0.10725376444280799,2.8753655837889548e-05
49,0.112505566177544,2.8698484078643017e-05
50,0.11796145347192,2.878192964346776e-05
51,0.12373027195774398,2.9065372125572416e-05
52,0.129880050154896,2.955497015205212e-05
53,0.13626112531964,3.0183093313930644e-05
54,0.14295513167583201,3.098390987462521e-05
55,0.14997567492744798,3.197691395933709e-05
56,0.157336360778464,3.319254194602613e-05
57,0.165064400636832,3.465737882777603e-05
58,0.173159794502552,3.640972536162791e-05
59,0.18166335948755197,3.847925639904248e-05
60,0.190602306999784,4.089969910352501e-05
61,0.19993581992731999,4.368011220045545e-05
62,0.209786349605944,4.6915817387624986e-05
63,0.220058656107824,5.067074668745484e-05
64,0.23088879647271998,5.506573442300299e-05
65,0.24224955929268,6.026317831238298e-05
66,0.254113733159752,6.638031514814295e-05
67,0.266630980817672,7.366043583723491e-05
68,0.279678850930656,8.208353275502845e-05
69,0.293447823354368,9.094845191916714e-05
70,0.307883475272904,0.00010010007539556819
71,0.322958595278312,0.00011010421658046281
72,0.33885005752228,0.00012097891274560468
73,0.355462622076976,0.00013285053214875248
74,0.37289152887023197,0.00014548284587381546
75,0.391245623533856,0.00015894436904931054
76,0.410402454732064,0.0001734607926306812
77,0.43064774224835195,0.00018960719219658477
78,0.45183182333898403,0.00020785809267223745
79,0.47394109229998393,0.00022954980546797233
80,0.497329297434728,0.00025583811643392737
81,0.521601873327912,0.0002846490387902225
82,0.5473982880664079,0.00031036970332371644
83,0.574269553419008,0.00033223622409588147
84,0.602446966353304,0.0003540295706041059
85,0.631930526869296,0.00037634803575492624
86,0.6630195604544559,0.00039828803259098276
87,0.695754884220712,0.0004175299280035522
88,0.72974193275276,0.00043127387911946183
89,0.765334454353976,0.00044068140587424557
90,0.80300864866352,0.0004499304503692439
91,0.8428597556092239,0.00046201502352135254
92,0.8837040789451759,0.00047795951163733246
93,0.9273375715962079,0.0004945147198493914
94,0.9731887939953279,0.0005103899776734499
95,1.020441403903976,0.0005249395281005934
96,1.070673662983368,0.0005387430728044962
97,1.123042017586992,0.0005517854850807904
98,1.178553289809072,0.0005622288456580343
99,1.236132629035504,0.0005705413047622059
100,1.297317479815576,0.0005814368286579139
101,1.360964963015304,0.0005901129763354311
102,1.4278914208732478,0.0005991742068770303
103,1.497933584941696,0.0006130902374060414
104,1.571608471971736,0.0006260532865755226
105,1.648725602107704,0.0006387380873810897
106,1.7296931464688798,0.0006522364911595598
107,1.8147560077268319,0.000668872422646907
108,1.903941397289512,0.0006843882870861145
109,1.9971676809330638,0.0006984802005596641
110,2.095387257935808,0.0007111835760523666
111,2.1983008028102717,0.0007220662718802116
112,2.306262063859832,0.0007315995013417765
113,2.419679212203768,0.0007389041436903713
114,2.5385794592500317,0.0007471356735279903
115,2.662894776478744,0.0007494161177782759
116,2.7937000145040076,0.0007401345784984931
117,2.93107680754968,0.0007251411381749823
118,3.0750115499117836,0.0007012319488415636
119,3.226238949605024,0.0006827817394046106
120,3.384772612333376,0.0006936035490675531
121,3.5505172981690083,0.0007189370546374824
122,3.725486651300368,0.0007413482195003461
123,3.9087146667451598,0.0007649825250832153
124,4.10001086464772,0.0007897143072300228
125,4.302028357283368,0.0008162071783704987
126,4.513447391366432,0.000845073193148307
127,4.73403666992932,0.0008728536585326024
128,4.967320070301816,0.0009012254818873236
129,5.211610485190896,0.0009284448042780371
130,5.466676617628968,0.0009488025199927749
131,5.734708985956168,0.0009667453309891654
132,6.0157348015804475,0.0009770136668333538
133,6.312842559304359,0.000982875084905796
134,6.6230934270690875,0.0009905279566800804
135,6.9459023596036635,0.0009856206670503295
136,7.288902156838623,0.0009731648629064147
137,7.648623364260087,0.0009544918522565763
138,8.024875502012392,0.0009424363933868441
139,8.41712794764047,0.0009212380856886911
140,8.830795771326777,0.0008787703436770191
141,9.266382384118415,0.000826385275127035
142,9.716635945796183,0.000758185016492251
143,10.196063546387911,0.0004374530783940714
144,10.196083938617031,0.0007088488988307013
145,10.697525568241927,0.0003708798378350238
146,11.220297532111775,0.0002806216810488715
147,11.277346248883143,0.00026757734711342304
148,11.332490167097871,0.0002569780658858896
149,11.387552451088743,0.0002467043786531634
150,11.4427371864154,0.00023675258262682072
151,11.497799470406273,0.00022710554794725388
152,11.552984205732928,0.00021783597684438375
153,11.608032884019822,0.0002088988321940465
154,11.66317680223455,0.00020028228269306625
155,11.718293509041327,0.00019169548754704473
156,11.774389826534374,0.0001831419300719662
157,11.831234457746103,0.00017174212100806371
158,11.889099516756032,0.00016147170914536255
159,11.946842124430175,0.00015230658969532724
160,12.00467997203215,0.00014345204910160749
161,12.062490608226176,0.0001348940261154114
162,12.084220438593553,0.00014551473010622552
163,12.084244607766095,0.0001311948449627293
164,12.120382878644056,0.0001406520819012053
165,12.178247937653984,0.00013239635927946621
166,12.236058573848007,0.00012475645835450348
167,12.293814787226127,0.00011737111766947223
168,12.349026733960736,0.00011020490490207148
169,12.412334074561063,0.00010057353628555079
170,12.47298830288607,9.199107482438213e-05
171,12.53366974261903,8.44802016528924e-05
172,12.594337576648016,7.710304306425797e-05
173,12.654991804973022,6.985382732068297e-05
174,12.715659639002007,6.273254163696954e-05
175,12.749008076606534,6.209750705262551e-05
176,12.749033573695785,5.884360689733596e-05
177,12.776327473030992,5.940865194280018e-05
178,12.836995307059976,5.34498457664844e-05
179,12.897663141088959,4.7599391654846714e-05
180,12.958222129486135,4.1854574545960256e-05
181,12.968018236348854,4.092594554864548e-05
182,12.97773270898772,3.992976057027799e-05
183,12.987433575922607,3.8965264641891094e-05
184,12.99714804856147,3.803218064270306e-05
185,13.00684891549636,3.71292763696189e-05
186,13.016563388135223,3.625567304081299e-05
187,13.026250649366135,3.541033598254838e-05
188,13.035965122004999,3.4592530669496597e-05
189,13.045679594643863,3.380133387663533e-05
190,13.055081687122291,3.417029339816931e-05
191,13.05510779646822,3.3035845432822746e-05
192,13.071979420429471,3.291886587967308e-05
193,13.088578379280191,3.173694056133854e-05
194,13.105177338130911,3.062004432793556e-05
195,13.121776296981631,2.95647679315275e-05
196,13.138388861536328,2.856795269268426e-05
197,13.154987820387047,2.762637277538638e-05
198,13.171586779237767,2.6737316286678758e-05
199,13.188185738088487,2.5897945589442264e-05
200,13.204798302643184,2.5105714459868574e-05
201,13.220744572744477,2.4934571362468167e-05
202,13.220771014069586,2.435614765718161e-05
203,13.231451876732168,2.4503071015672468e-05
204,13.241520097674407,2.408601326229506e-05
205,13.25157471291267,2.3683448684799343e-05
206,13.261642933854912,2.329493707708147e-05
207,13.271697549093174,2.2920060335279698e-05
208,13.28175216433144,2.2558350583604654e-05
209,13.29182038527368,2.2209457929592717e-05
210,13.301875000511943,2.1872881868615333e-05
211,13.311943221454182,2.1548332724798926e-05
212,13.321603555636356,2.160319345565497e-05
213,13.321630198325881,2.123488468006772e-05
214,13.328501363192975,2.140912986556997e-05
215,13.33501849539748,2.1217489743271206e-05
216,13.341508416194031,2.1030352207836237e-05
217,13.348025548398535,2.084764815485571e-05
218,13.354529074899064,2.066923878652587e-05
219,13.361032601399591,2.0495070941230144e-05
220,13.36753612790012,2.0324988598622263e-05
221,13.374039654400647,2.015903863032523e-05
222,13.380543180901174,1.9997024031653646e-05
223,13.386325824142808,2.010556346609966e-05
224,13.386352597447093,1.9837149328679654e-05
225,13.391454955489928,2.0000269896282527e-05
226,13.395876809282127,1.9897014313400687e-05
227,13.400271451666375,1.9795437563701593e-05
228,13.404693305458576,1.9695581302323724e-05
229,13.4091015535468,1.959734622000699e-05
230,13.413509801635023,1.9500754099436246e-05
231,13.417918049723248,1.9405765860180332e-05
232,13.422339903515448,1.9312361939640894e-05
233,13.426748151603672,1.922054549574977e-05
234,13.43127902518069,1.9336446888210098e-05
235,13.43130588828262,1.913242809397744e-05
236,13.434367345830232,1.92710894508755e-05
237,13.437564686264592,1.920712148561071e-05
238,13.440789238106902,1.9144017301384905e-05
239,13.444000184245239,1.908167831816683e-05
240,13.447197524679599,1.902010532141305e-05
241,13.450408470817935,1.8959296589376982e-05
242,13.45361941695627,1.8899274237756063e-05
243,13.456830363094607,1.8839957078764836e-05
244,13.460041309232944,1.8781427436463254e-05
245,13.463374849566955,1.8887655770662508e-05
246,13.463401775255123,1.872405746977423e-05
247,13.594764990003295,1.7076797305224285e-05
248,14.203715482857126,1.5610424742902394e-05
249,14.900164257980615,1.4931586488524588e-05
250,15.632872234200144,1.4730069348334298e-05
251,16.40004345859088,1.4710437829661504e-05
252,17.20570521952972,1.4293389712428025e-05
253,18.04983030560871,1.3705775890548948e-05
254,18.93757527863476,1.3361365197140134e-05
255,19.86609654647688,1.2954077953610531e-05
256,20.844700410654657,1.2236776462461762e-05
257,21.866720076219845,1.11291681359641e-05
258,22.94305371205723,1.0596417386789661e-05
259,24.06994614386943,1.0422075852694186e-05
260,25.251383842921417,9.882465193700614e-06
261,26.49237370827635,9.490714838274693e-06
262,27.792929345638214,9.10368728424263e-06
263,29.159050870460426,8.92210029620575e-06
264,30.590738282742972,8.6091243733406e-06
265,32.087025577503574,8.253167697316649e-06
266,33.66394027402595,7.971386570410418e-06
267,35.32315587389915,7.809377826598932e-06
268,37.05448170484515,7.846490519092854e-06
269,38.87873449394723,8.383998118662397e-06
270,40.78426779125562,5.279180554387067e-06
271,40.7843493601721,9.674799300755645e-06
272,42.782700770004766,4.454988099970311e-06
273,44.88931273372077,3.193071304061433e-06
274,45.109466629756426,3.0162211420832086e-06
275,45.32981100564775,2.8518834970224908e-06
276,45.5503050442828,2.682312103287144e-06
277,45.77075826580593,2.5072908829881133e-06
278,45.99130672725689,2.326620448500979e-06
279,46.21175994878002,2.136921674704018e-06
280,46.432240381711104,1.939833584548871e-06
281,46.65272081464218,1.7379843576552929e-06
282,46.873187641869286,1.5311772888866032e-06
283,47.088606752921294,1.3190580316427124e-06
284,47.32495143668839,1.0898058624568942e-06
285,47.55622119287244,8.568360200973285e-07
286,47.787531766168414,6.171391589978693e-07
287,48.018883156576315,3.760375070525101e-07
288,48.25023454698422,2.7177980483387487e-07
289,48.3557528481015,2.2979953455099763e-06
290,48.355849560166504,6.444391140107598e-07
291,48.481545120280195,2.20328498381257e-06
292,48.7127876650563,2.028093736937894e-06
293,48.94412544976022,1.845848654914458e-06
294,49.175327177424386,1.6589162575875377e-06
295,49.41582160090417,1.4674326104505996e-06
296,49.649322692540274,1.2568171640409426e-06
297,49.89207566288007,1.046175872630974e-06
298,50.134570124844316,8.337710815007069e-07
299,50.37739112370399,6.284599585141426e-07
300,50.619885585668236,4.592006366671413e-07
301,50.86263855600803,4.190535635440308e-07
302,51.001297707061994,1.1125240978682496e-06
303,51.0013997090247,5.433232050108872e-07
304,51.105201046492155,1.0281633498688323e-06
305,51.347967622535926,8.441493453613279e-07
306,51.590693381467766,6.737048703613313e-07
307,51.832902123648516,5.329667637258306e-07
308,51.8721409739153,5.15189306558034e-07
309,51.91102607587871,4.990024539604316e-07
310,51.94973430369043,4.846991269102973e-07
311,51.98851056002203,4.725134449185344e-07
312,52.02734123916953,4.6269822010582134e-07
313,52.066239946836916,4.5554207502760435e-07
314,52.10496178035261,4.5136866477127545e-07
315,52.14375164238819,4.5054173487766044e-07
316,52.18259592723967,4.5347296920260104e-07
317,52.225850657500565,7.352111241536604e-07
318,52.22595510848999,4.6067821322784625e-07
319,52.288012921645716,6.944662834631416e-07
320,52.35424548860089,6.555186341288613e-07
321,52.420654929707744,6.186449014213721e-07
322,52.48722763926231,5.842260025114916e-07
323,52.55352823473736,5.527058671343628e-07
324,52.61999209866011,5.246218863330798e-07
325,52.686401539766976,5.005965909737789e-07
326,52.752756558057925,4.813669920555804e-07
327,52.819057153532974,4.678101195148399e-07
328,52.894271013032856,6.433665436958406e-07
329,52.89437680282356,4.6110974403456726e-07
330,52.92569866129686,6.247049056791344e-07
331,52.965944333657866,6.07148351079993e-07
332,53.00625803453875,5.906233239170759e-07
333,53.046626158235554,5.752158415436784e-07
334,53.08683101348463,5.610132693166778e-07
335,53.127090291549614,5.481192554030193e-07
336,53.167186301166886,5.366363629842624e-07
337,53.20756803056765,5.266855579746995e-07
338,53.247786491520706,5.183855549338121e-07
339,53.28068622525324,6.574565341664774e-07
340,53.28079278784792,5.117518494831425e-07
341,53.31396463565997,6.470701161041474e-07
342,53.34011479870185,6.369060574480102e-07
343,53.36606087618408,6.270649850699758e-07
344,53.39202055937028,6.175597568823205e-07
345,53.41802105966842,6.084057872826392e-07
346,53.444035165670535,5.996130192497226e-07
347,53.4700764830806,5.911951344320138e-07
348,53.49615861760259,5.831674575880714e-07
349,53.52225435782855,5.755432700096559e-07
350,53.55686813406628,6.914585491705919e-07
351,53.556975249052535,5.68432464714281e-07
352,53.56595587899947,6.829787880576441e-07
353,53.58354805424043,6.746666764025982e-07
354,53.60115383518538,6.664191625131364e-07
355,53.6187732218343,6.582395670809109e-07
356,53.63639260848322,6.501294210284251e-07
357,53.65403920654009,6.420874934040571e-07
358,53.67168580459697,6.341184153032371e-07
359,53.68935961406179,6.262193183583746e-07
360,53.70703342352662,6.183948467762586e-07
361,53.71930647192786,7.152650707338825e-07
362,53.71941391072988,6.106371477410533e-07
363,53.73752380613683,7.074495988215793e-07
364,53.75034037928222,6.996008365750288e-07
365,53.76315695242761,6.917547851679027e-07
366,53.77597352557301,6.839130835330805e-07
367,53.78881731012635,6.760728105776013e-07
368,53.80164748897572,6.682350854118319e-07
369,53.814491273529065,6.60400253080367e-07
370,53.82734866378638,6.52568311734897e-07
371,53.84019244833972,6.447405703722331e-07
372,53.85932263140612,7.258029986840418e-07
373,53.859430350485646,6.369404555503454e-07
374,54.37901918643951,3.1460278360531585e-07
375,54.379127944994806,3.146034128138737e-07
376,57.05673053100986,2.1116328870501547e-07
377,59.837981326375825,1.8291072090051954e-07
378,62.77685420230376,1.8311968343712856e-07
379,65.87900913164766,1.9108770093658838e-07
380,69.11052709439538,2.022249511577789e-07
381,72.50543595619087,2.1381115261017633e-07
382,76.06398061970572,2.28326480112937e-07
383,79.78397056659978,2.450930792988731e-07
384,83.71660406093474,2.6048085361157323e-07
385,87.80756713243842,2.7827904202379357e-07
386,92.18162408657074,2.963427248866696e-07
387,96.63622680824096,3.159486343853158e-07
388,101.46014275863574,3.3850263676935854e-07
389,106.42427909420718,3.6088527190476104e-07
390,111.59701808313864,3.8486879362600006e-07
391,117.07675617658458,4.1088180701345573e-07
392,122.87837801469472,4.383366798690979e-07
393,128.89518766688926,4.6645817790153217e-07
394,135.23590831364044,4.963902052574142e-07
395,141.87468911739384,5.267934611414697e-07
396,148.8406734960661,5.589903931531847e-07
397,156.15149444201006,5.916663160444732e-07
398,163.8270162830307,6.252294235692185e-07
399,171.8662185913298,6.595657859346821e-07
400,180.31455802389124,6.941792908603246e-07
401,189.17346317963242,7.288593255426473e-07
402,198.43836254201744,7.639527462372167e-07
403,208.20199258934673,7.990104861845544e-07
404,218.43602624594226,8.336392487338941e-07
405,229.13378311115176,8.682000887609523e-07
406,240.41940162805233,9.029261470069227e-07
407,252.20562841704583,9.364621465583625e-07
408,264.5844788541219,9.687587933473516e-07
409,277.61819903497087,1.0004534089099537e-06
410,291.2480259241203,1.0309869369599952e-06
411,305.5305184329985,1.0592646720703642e-06
412,320.538480683581,1.0869476189266442e-06
413,336.2741712227277,1.111697561985383e-06
414,352.82949658079673,1.1342657007100563e-06
415,370.102345949448,1.1538077336011917e-06
416,388.3003015542434,1.1710150859669665e-06
417,407.44096917612796,1.186769476317109e-06
418,427.38464544667596,1.1966812922065522e-06
419,448.40609755768287,1.203221659738686e-06
420,470.35009803248636,1.2057951558478047e-06
421,493.56801417626673,1.2065277152522969e-06
422,517.6796890142306,1.201762730374752e-06
423,543.0761504786481,1.1937227812954975e-06
424,569.7807323518381,1.1836889293426172e-06
425,597.8027273296162,1.1714250741619584e-06
426,627.1334685785498,1.1545830512102397e-06
427,658.0906901035903,1.1357907553743985e-06
428,690.3356642985513,1.1148792341515894e-06
429,724.2072820380669,1.0923426908237332e-06
430,759.7076386005494,1.0685575586630585e-06
431,797.3266073576549,1.0441857787923622e-06
432,836.036998476307,1.018417375935041e-06
433,877.4542580066884,9.928837546696274e-07
434,920.4475614685377,9.668579616694666e-07
435,965.6097093840892,9.406528785522404e-07
436,1012.9435181340659,9.147412873348399e-07
437,1062.4189055069771,8.890454691238481e-07
438,1114.9666105004128,8.639055999002665e-07
439,1169.663077928482,8.394694987569468e-07
440,1227.567198914525,8.247043110894097e-07
441,1287.4796170473537,8.250517478716169e-07
442,1350.7384941301189,8.479414019671868e-07
443,1417.1252273170392,8.762678739662692e-07
444,1486.8004183378464,9.053461073833149e-07
445,1559.7469648226431,9.350729230954529e-07
446,1636.3242206248435,9.655679263963032e-07
447,1716.7583261502325,9.952949020341566e-07
