,E (eV),I (erg/s/cm**2)
0,0.010734900437064,4.269744760437637e-05
1,0.011265522892127998,4.261720392334854e-05
2,0.011809751051167999,4.23794081459081e-05
3,0.012394796322136,4.1955493345200244e-05
4,0.013007053001056,4.141946064721445e-05
5,0.013646521087927998,4.0843450813303336e-05
6,0.014313200582752,4.016843656616442e-05
7,0.015007091485528,3.9398031164526124e-05
8,0.015755405204207998,3.859549521101511e-05
9,0.016530930330839997,3.772761090042418e-05
10,0.017333666865423997,3.6831399448656356e-05
11,0.018190826215912,3.5960914759881797e-05
12,0.019075196974352,3.50372154150721e-05
13,0.020013990548696,3.410404888675137e-05
14,0.020993601234968,3.313879728590115e-05
15,0.022027634737144,3.2187473609584875e-05
16,0.023116091055223997,3.126340218736541e-05
17,0.024245364485232,3.0352200342588077e-05
18,0.025442666435119998,2.946997469890662e-05
19,0.026694391200912,2.86081469012193e-05
20,0.028000538782607998,2.7753297530947274e-05
21,0.029374714884183997,2.691071416061266e-05
22,0.03081691950564,2.6068899734930686e-05
23,0.032340758350952,2.525501143468379e-05
24,0.033919020012168,2.4467424538533947e-05
25,0.035592521601215996,2.371710278912182e-05
26,0.037334051710144,2.3005799059198143e-05
27,0.039170821746904,2.2316608847443532e-05
28,0.04108922600752,2.1674142691396787e-05
29,0.043116475899943996,2.1053455196803146e-05
30,0.045238965720199996,2.048156709414665e-05
31,0.047443089764311996,1.992256510956993e-05
32,0.049769665144208,1.9402407516062855e-05
33,0.052232297563863994,1.8949934072152092e-05
34,0.054790169911352,1.8512781752650517e-05
35,0.05748409929859999,1.813048121707648e-05
36,0.060300480021632,1.7803984965628884e-05
37,0.063252917784424,1.752060615073649e-05
38,0.066368623994928,1.726843596338192e-05
39,0.069647598653144,1.7033830501800687e-05
40,0.07306263035112,1.6807874488701355e-05
41,0.07662732479283199,1.6589480232405664e-05
42,0.08040971049816,1.639439012813521e-05
43,0.084341758947224,1.6204292823626535e-05
44,0.088491498659904,1.6025517277804947e-05
45,0.09287253534017599,1.5859440575907298e-05
46,0.097389629060208,1.568089612790117e-05
47,0.10221965397168799,1.5505052103750193e-05
48,0.10725376444280799,1.5336586690351767e-05
49,0.112505566177544,1.5236348247164361e-05
50,0.11796145347192,1.5222522439904141e-05
51,0.12373027195774398,1.53391176131241e-05
52,0.129880050154896,1.5580587816440152e-05
53,0.13626112531964,1.5911334378567712e-05
54,0.14295513167583201,1.6345500190443582e-05
55,0.14997567492744798,1.688847700524978e-05
56,0.157336360778464,1.7554805416306902e-05
57,0.165064400636832,1.834684395552531e-05
58,0.173159794502552,1.928347448614178e-05
59,0.18166335948755197,2.0379488545731653e-05
60,0.190602306999784,2.164869374730068e-05
61,0.19993581992731999,2.3134056640892323e-05
62,0.209786349605944,2.4911279123225437e-05
63,0.220058656107824,2.706050565670552e-05
64,0.23088879647271998,2.968315993349185e-05
65,0.24224955929268,3.291030539245366e-05
66,0.254113733159752,3.684620959824083e-05
67,0.266630980817672,4.1594003246428966e-05
68,0.279678850930656,4.707969473019665e-05
69,0.293447823354368,5.2785768165278664e-05
70,0.307883475272904,5.8675483448015375e-05
71,0.322958595278312,6.516952783238564e-05
72,0.33885005752228,7.23196496292873e-05
73,0.355462622076976,8.008834927261065e-05
74,0.37289152887023197,8.850206457877454e-05
75,0.391245623533856,9.754215018460173e-05
76,0.410402454732064,0.00010726885248883533
77,0.43064774224835195,0.00011823951610655542
78,0.45183182333898403,0.0001309066653598257
79,0.47394109229998393,0.00014602478213586855
80,0.497329297434728,0.00016441339085061527
81,0.521601873327912,0.00018464149790839944
82,0.5473982880664079,0.0002035865578076355
83,0.574269553419008,0.00022056018238404202
84,0.602446966353304,0.0002372400845481033
85,0.631930526869296,0.0002536508954927573
86,0.6630195604544559,0.0002691516497267973
87,0.695754884220712,0.00028286331320484883
88,0.72974193275276,0.00029313319695657556
89,0.765334454353976,0.00030115167313447534
90,0.80300864866352,0.00030963218088323423
91,0.8428597556092239,0.0003203884669855071
92,0.8837040789451759,0.00033376610838224707
93,0.9273375715962079,0.00034855538941041295
94,0.9731887939953279,0.00036371939307723974
95,1.020441403903976,0.00037827892754467725
96,1.070673662983368,0.0003926708266619288
97,1.123042017586992,0.00040573465784940845
98,1.178553289809072,0.00041719528997629914
99,1.236132629035504,0.0004274364745391525
100,1.297317479815576,0.0004391326285354762
101,1.360964963015304,0.0004490978923556419
102,1.4278914208732478,0.00045990199805207916
103,1.497933584941696,0.0004742687657495114
104,1.571608471971736,0.0004885221297743719
105,1.648725602107704,0.0005034759041865887
106,1.7296931464688798,0.0005207380462679045
107,1.8147560077268319,0.0005406672797601605
108,1.903941397289512,0.0005604694611312292
109,1.9971676809330638,0.0005807520000148482
110,2.095387257935808,0.0006007813987163682
111,2.1983008028102717,0.0006200017701326313
112,2.306262063859832,0.0006380472661613599
113,2.419679212203768,0.0006546470143638226
114,2.5385794592500317,0.0006727769300131826
115,2.662894776478744,0.0006864658110518656
116,2.7937000145040076,0.0006900509219818062
117,2.93107680754968,0.000687646122450941
118,3.0750115499117836,0.0006760044170755214
119,3.226238949605024,0.0006710180913304622
120,3.384772612333376,0.0006926779216474488
121,3.5505172981690083,0.0007310200303054153
122,3.725486651300368,0.0007663654674792875
123,3.9087146667451598,0.0008038195511362262
124,4.10001086464772,0.0008430346611270106
125,4.302028357283368,0.0008847037448262763
126,4.513447391366432,0.0009327073654232405
127,4.73403666992932,0.0009846215051533278
128,4.967320070301816,0.0010411410774324003
129,5.211610485190896,0.0011018452921317228
130,5.466676617628968,0.0011599243690471755
131,5.734708985956168,0.0012134849467061526
132,6.0157348015804475,0.0012665533578420645
133,6.312842559304359,0.0013160628330803747
134,6.6230934270690875,0.0013491465706492506
135,6.9459023596036635,0.0013688941424937148
136,7.288902156838623,0.0013735931906035286
137,7.648623364260087,0.0013663154611537897
138,8.024875502012392,0.0013850035481859548
139,8.41712794764047,0.0013749516790539857
140,8.830795771326777,0.0013306327128740532
141,9.266382384118415,0.0013058858282376103
142,9.716635945796183,0.0012397269797311068
143,10.196063546387911,0.0006939765549300655
144,10.196083938617031,0.0012064062990741887
145,10.697525568241927,0.0005990635767998208
146,11.220297532111775,0.0004490083270126126
147,11.277346248883143,0.0004277912321856019
148,11.332490167097871,0.00040942226101287234
149,11.387552451088743,0.00039148457058718356
150,11.4427371864154,0.00037397358354065817
151,11.497799470406273,0.0003568725106545217
152,11.552984205732928,0.000340304166061198
153,11.608032884019822,0.00032414394645350687
154,11.66317680223455,0.00030833641470102345
155,11.718293509041327,0.00029251371305552207
156,11.774389826534374,0.00027669851277465973
157,11.831234457746103,0.00025634164344396856
158,11.889099516756032,0.000237562373297718
159,11.946842124430175,0.00022028401473945974
160,12.00467997203215,0.0002034517456324988
161,12.062490608226176,0.00018704914971771173
162,12.084220438593553,0.00026055324876577996
163,12.084244607766095,0.00017995688081367238
164,12.120382878644056,0.00025118716022717565
165,12.178247937653984,0.0002351721003707325
166,12.236058573848007,0.000220208254827332
167,12.293814787226127,0.00020562498782647362
168,12.349026733960736,0.00019136704631690123
169,12.412334074561063,0.00017191167146680679
170,12.47298830288607,0.0001544917036582116
171,12.53366974261903,0.00013904694897734127
172,12.594337576648016,0.00012377089594772147
173,12.654991804973022,0.00010866099646730214
174,12.715659639002007,9.371360177883441e-05
175,12.749008076606534,0.00010370244938697936
176,12.749033573695785,8.553435420079058e-05
177,12.776327473030992,9.80478984782825e-05
178,12.836995307059976,8.552576008873396e-05
179,12.897663141088959,7.315244812679834e-05
180,12.958222129486135,6.091159626168204e-05
181,12.968018236348854,5.8815260579800344e-05
182,12.97773270898772,5.664750615203265e-05
183,12.987433575922607,5.455491425221183e-05
184,12.99714804856147,5.253501312221934e-05
185,13.00684891549636,5.058509395030212e-05
186,13.016563388135223,4.870305531143605e-05
187,13.026250649366135,4.688652792892015e-05
188,13.035965122004999,4.513269580183963e-05
189,13.045679594643863,4.344001763146392e-05
190,13.055081687122291,4.7125967675048944e-05
191,13.05510779646822,4.181049602338617e-05
192,13.071979420429471,4.44566348451965e-05
193,13.088578379280191,4.1939960700900396e-05
194,13.105177338130911,3.9570626637979e-05
195,13.121776296981631,3.7339847650096526e-05
196,13.138388861536328,3.523958628396178e-05
197,13.154987820387047,3.326220958000501e-05
198,13.171586779237767,3.1400597853916585e-05
199,13.188185738088487,2.964807508862346e-05
200,13.204798302643184,2.7998319353514382e-05
201,13.220744572744477,2.8714727900618242e-05
202,13.220771014069586,2.6445080000504764e-05
203,13.231451876732168,2.781991998271958e-05
204,13.241520097674407,2.6954072125614966e-05
205,13.25157471291267,2.6119342741796284e-05
206,13.261642933854912,2.5314772400494715e-05
207,13.271697549093174,2.4539210352166305e-05
208,13.28175216433144,2.379162225969884e-05
209,13.29182038527368,2.307108830551621e-05
210,13.301875000511943,2.2376614058068913e-05
211,13.311943221454182,2.1707296534239323e-05
212,13.321603555636356,2.2368230661850917e-05
213,13.321630198325881,2.1060828246241605e-05
214,13.328501363192975,2.1963967785458858e-05
215,13.33501849539748,2.1568626708336953e-05
216,13.341508416194031,2.118253426200852e-05
217,13.348025548398535,2.08056701638412e-05
218,13.354529074899064,2.0437699554001845e-05
219,13.361032601399591,2.0078454616844227e-05
220,13.36753612790012,1.972770492769354e-05
221,13.374039654400647,1.938534149850445e-05
222,13.380543180901174,1.9051092475304484e-05
223,13.386325824142808,1.9605263178065918e-05
224,13.386352597447093,1.872265703494072e-05
225,13.391454955489928,1.9388042066559124e-05
226,13.395876809282127,1.917460254470329e-05
227,13.400271451666375,1.8964562499605976e-05
228,13.404693305458576,1.875800292975593e-05
229,13.4091015535468,1.8554788115511043e-05
230,13.413509801635023,1.8354859254502237e-05
231,13.417918049723248,1.815821972486663e-05
232,13.422339903515448,1.7964768755604286e-05
233,13.426748151603672,1.777451378319846e-05
234,13.43127902518069,1.823861991318313e-05
235,13.43130588828262,1.7585672495960237e-05
236,13.434367345830232,1.810373715650685e-05
237,13.437564686264592,1.7970936938344332e-05
238,13.440789238106902,1.7839782039137278e-05
239,13.444000184245239,1.77101782197583e-05
240,13.447197524679599,1.758208620047577e-05
241,13.450408470817935,1.7455583702683625e-05
242,13.45361941695627,1.7330572217142825e-05
243,13.456830363094607,1.720705285163148e-05
244,13.460041309232944,1.708502672108599e-05
245,13.463374849566955,1.7472206580559223e-05
246,13.463401775255123,1.6964969704712306e-05
247,13.594764990003295,1.3611041876074578e-05
248,14.203715482857126,1.0837096080950347e-05
249,14.900164257980615,9.969482548717238e-06
250,15.632872234200144,9.65695936314566e-06
251,16.40004345859088,1.023551466849967e-05
252,17.20570521952972,1.0916092801630679e-05
253,18.04983030560871,1.0486371949542652e-05
254,18.93757527863476,1.0616588625817394e-05
255,19.86609654647688,1.0430869852363497e-05
256,20.844700410654657,9.513270314232368e-06
257,21.866720076219845,7.727297039086374e-06
258,22.94305371205723,7.445377480560854e-06
259,24.06994614386943,8.549759069557384e-06
260,25.251383842921417,7.688066866396356e-06
261,26.49237370827635,7.285069489769762e-06
262,27.792929345638214,6.631841952030963e-06
263,29.159050870460426,6.75049475211083e-06
264,30.590738282742972,6.545611512245165e-06
265,32.087025577503574,5.970750027235304e-06
266,33.66394027402595,5.428480499181617e-06
267,35.32315587389915,5.352579331890463e-06
268,37.05448170484515,5.547375346760671e-06
269,38.87873449394723,4.955737933350053e-06
270,40.78426779125562,3.738799937465445e-06
271,40.7843493601721,4.301425435173928e-06
272,42.782700770004766,3.3760152015284354e-06
273,44.88931273372077,2.631112577900148e-06
274,45.109466629756426,2.4808249270449223e-06
275,45.32981100564775,2.350372151807925e-06
276,45.5503050442828,2.214582200306597e-06
277,45.77075826580593,2.0731928013627524e-06
278,45.99130672725689,1.925954128828528e-06
279,46.21175994878002,1.7668411305852465e-06
280,46.432240381711104,1.5999997634480832e-06
281,46.65272081464218,1.4305441050319085e-06
282,46.873187641869286,1.2581612299292472e-06
283,47.088606752921294,1.0824030816535285e-06
284,47.32495143668839,9.00473537927495e-07
285,47.55622119287244,7.142783180465197e-07
286,47.787531766168414,5.187735530416932e-07
287,48.018883156576315,3.136301400295224e-07
288,48.25023454698422,9.851328859472059e-08
289,48.3557528481015,1.6294608938759053e-06
290,48.355849560166504,0.0
291,48.481545120280195,1.5642712038261661e-06
292,48.7127876650563,1.4482444507454545e-06
293,48.94412544976022,1.3288215643712272e-06
294,49.175327177424386,1.2039802557157878e-06
295,49.41582160090417,1.0737348404406972e-06
296,49.649322692540274,9.045456876874169e-07
297,49.89207566288007,7.422247877879733e-07
298,50.134570124844316,5.805313482659439e-07
299,50.37739112370399,4.1872481639614273e-07
300,50.619885585668236,2.560464605321677e-07
301,50.86263855600803,9.174798420756576e-08
302,51.001297707061994,6.609437634393358e-07
303,51.0013997090247,8.459787152953361e-115
304,51.105201046492155,6.032540535938522e-07
305,51.347967622535926,4.7426345162207755e-07
306,51.590693381467766,3.446543868477154e-07
307,51.832902123648516,2.137221921950434e-07
308,51.8721409739153,1.9313077661815373e-07
309,51.91102607587871,1.7233801300205547e-07
310,51.94973430369043,1.5138219183878272e-07
311,51.98851056002203,1.3026274308724095e-07
312,52.02734123916953,1.08977519730231e-07
313,52.066239946836916,8.752459501284746e-08
314,52.10496178035261,6.590200357998507e-08
315,52.14375164238819,4.410828300741114e-08
316,52.18259592723967,2.2141604921486124e-08
317,52.225850657500565,3.410249742820674e-07
318,52.22595510848999,9.077090526688957e-58
319,52.288012921645716,3.088988265959194e-07
320,52.35424548860089,2.763636832257594e-07
321,52.420654929707744,2.4340041099626234e-07
322,52.48722763926231,2.1000411477227644e-07
323,52.55352823473736,1.7616211048795635e-07
324,52.61999209866011,1.4186818658893957e-07
325,52.686401539766976,1.0711362743412896e-07
326,52.752756558057925,7.188975620789539e-08
327,52.819057153532974,3.618818232144123e-08
328,52.894271013032856,2.0668732831003145e-07
329,52.89437680282356,1.7791860813012756e-35
330,52.92569866129686,1.8676595392535259e-07
331,52.965944333657866,1.6668117614099413e-07
332,53.00625803453875,1.4643313357728088e-07
333,53.046626158235554,1.2602189625938524e-07
334,53.08683101348463,1.0544408557040614e-07
335,53.127090291549614,8.469864115711227e-08
336,53.167186301166886,6.378315070421078e-08
337,53.20756803056765,4.269639984492844e-08
338,53.247786491520706,2.143593097423436e-08
339,53.28068622525324,1.3328834389374202e-07
340,53.28079278784792,8.363524373438128e-25
341,53.31396463565997,1.2028876889636172e-07
342,53.34011479870185,1.0720374596947075e-07
343,53.36606087618408,9.404953202434208e-08
344,53.39202055937028,8.08258775490149e-08
345,53.41802105966842,6.753256194202495e-08
346,53.444035165670535,5.416879452793833e-08
347,53.4700764830806,4.073432900795203e-08
348,53.49615861760259,2.7228254753897018e-08
349,53.52225435782855,1.3650383215332717e-08
350,53.55686813406628,9.017114194435099e-08
351,53.556975249052535,4.1676368232616334e-19
352,53.56595587899947,8.12794530329476e-08
353,53.58354805424043,7.23773455610448e-08
354,53.60115383518538,6.344349514939707e-08
355,53.6187732218343,5.44775436169138e-08
356,53.63639260848322,4.5479446715204104e-08
357,53.65403920654009,3.644887103059324e-08
358,53.67168580459697,2.7385925761636813e-08
359,53.68935961406179,1.829026785484999e-08
360,53.70703342352662,9.161607613530122e-09
361,53.71930647192786,6.538913450029277e-08
362,53.71941391072988,8.239765628249168e-16
363,53.73752380613683,5.8938267540652287e-08
364,53.75034037928222,5.2457976888176465e-08
365,53.76315695242761,4.5960703426717046e-08
366,53.77597352557301,3.9446437225215306e-08
367,53.78881731012635,3.291518500784039e-08
368,53.80164748897572,2.6366743404780857e-08
369,53.814491273529065,1.9801117342021687e-08
370,53.82734866378638,1.3218226357062602e-08
371,53.84019244833972,6.618035613644174e-09
372,53.85932263140612,2.531718689701131e-07
373,53.859430350485646,4.775416879399553e-13
374,54.37901918643951,4.697561522633358e-09
375,54.379127944994806,4.697570917801059e-09
376,57.05673053100986,5.079708012862019e-09
377,59.837981326375825,4.874588894394676e-09
378,62.77685420230376,5.606132809423902e-09
379,65.87900913164766,6.021284353984023e-09
380,69.11052709439538,6.4447390975369295e-09
381,72.50543595619087,6.715058147770022e-09
382,76.06398061970572,7.34277991017498e-09
383,79.78397056659978,8.870381574318995e-09
384,83.71660406093474,9.340680610205638e-09
385,87.80756713243842,1.0634901837635216e-08
386,92.18162408657074,1.0856563343240005e-08
387,96.63622680824096,1.1900927649909797e-08
388,101.46014275863574,1.402720398454086e-08
389,106.42427909420718,1.451302061052855e-08
390,111.59701808313864,1.584235245747444e-08
391,117.07675617658458,1.750249775575086e-08
392,122.87837801469472,1.9284573695192435e-08
393,128.89518766688926,2.1251066944116714e-08
394,135.23590831364044,2.3508678513284948e-08
395,141.87468911739384,2.5727523538426956e-08
396,148.8406734960661,2.850579650043502e-08
397,156.15149444201006,3.1585586737383655e-08
398,163.8270162830307,3.499990506981881e-08
399,171.8662185913298,3.878017043514165e-08
400,180.31455802389124,4.29656984938279e-08
401,189.17346317963242,4.758853593770699e-08
402,198.43836254201744,5.26747528924888e-08
403,208.20199258934673,5.8290440369476105e-08
404,218.43602624594226,6.445438490495501e-08
405,229.13378311115176,7.122443390005596e-08
406,240.41940162805233,7.860425032410326e-08
407,252.20562841704583,8.659592681401575e-08
408,264.5844788541219,9.53483758393396e-08
409,277.61819903497087,1.047692355675316e-07
410,291.2480259241203,1.1486875915596068e-07
411,305.5305184329985,1.257006455636449e-07
412,320.538480683581,1.3723200672402758e-07
413,336.2741712227277,1.4948653795479127e-07
414,352.82949658079673,1.6220642770126655e-07
415,370.102345949448,1.7532029791717617e-07
416,388.3003015542434,1.8889623704801447e-07
417,407.44096917612796,2.0254067002912823e-07
418,427.38464544667596,2.160909029010831e-07
419,448.40609755768287,2.2944460140526623e-07
420,470.35009803248636,2.4224520433944857e-07
421,493.56801417626673,2.5420316685314576e-07
422,517.6796890142306,2.6520575436531836e-07
423,543.0761504786481,2.749159737198495e-07
424,569.7807323518381,2.8341359913423386e-07
425,597.8027273296162,2.906311240518693e-07
426,627.1334685785498,2.9612511333741526e-07
427,658.0906901035903,3.0034466808815865e-07
428,690.3356642985513,3.0289475330940024e-07
429,724.2072820380669,3.0411313430267455e-07
430,759.7076386005494,3.0424689185534593e-07
431,797.3266073576549,3.0380718480352803e-07
432,836.036998476307,3.028070621013916e-07
433,877.4542580066884,2.99678125721714e-07
434,920.4475614685377,2.9562304471129457e-07
435,965.6097093840892,2.911740226805461e-07
436,1012.9435181340659,2.8624138535975093e-07
437,1062.4189055069771,2.8098227176631235e-07
438,1114.9666105004128,2.756028257324324e-07
439,1169.663077928482,2.7007318884731205e-07
440,1227.567198914525,2.647558208805846e-07
441,1287.4796170473537,2.5917343907231215e-07
442,1350.7384941301189,2.543413778892132e-07
443,1417.1252273170392,2.4948874995992815e-07
444,1486.8004183378464,2.4562708511823396e-07
445,1559.7469648226431,2.42085782602159e-07
446,1636.3242206248435,2.401986947612996e-07
