,E (eV),I (erg/s/cm**2)
0,0.010734900437064,3.943561050611202e-05
1,0.011265522892127998,3.9365288771621924e-05
2,0.011809751051167999,3.911393300267277e-05
3,0.012394796322136,3.871655939556292e-05
4,0.013007053001056,3.821024289584163e-05
5,0.013646521087927998,3.7646465983082665e-05
6,0.014313200582752,3.7002280025584164e-05
7,0.015007091485528,3.626990044344429e-05
8,0.015755405204207998,3.5502876764090535e-05
9,0.016530930330839997,3.4678661382022055e-05
10,0.017333666865423997,3.382926907950201e-05
11,0.018190826215912,3.299272982301e-05
12,0.019075196974352,3.211599845019085e-05
13,0.020013990548696,3.1227583987758336e-05
14,0.020993601234968,3.0306530490065142e-05
15,0.022027634737144,2.939642006052986e-05
16,0.023116091055223997,2.8517055242026633e-05
17,0.024245364485232,2.7641130022387563e-05
18,0.025442666435119998,2.679510291282272e-05
19,0.026694391200912,2.5963900826380164e-05
20,0.028000538782607998,2.514132256330201e-05
21,0.029374714884183997,2.4322287257548347e-05
22,0.03081691950564,2.352193827054902e-05
23,0.032340758350952,2.2729510294390865e-05
24,0.033919020012168,2.196296617192121e-05
25,0.035592521601215996,2.1240487861690705e-05
26,0.037334051710144,2.0532789100785405e-05
27,0.039170821746904,1.9864757421361614e-05
28,0.04108922600752,1.9227062065126253e-05
29,0.043116475899943996,1.8616652041219747e-05
30,0.045238965720199996,1.804852187652766e-05
31,0.047443089764311996,1.7486303532483878e-05
32,0.049769665144208,1.696765489536727e-05
33,0.052232297563863994,1.6489934256788893e-05
34,0.054790169911352,1.603553182147363e-05
35,0.05748409929859999,1.562924334545855e-05
36,0.060300480021632,1.5269981548470038e-05
37,0.063252917784424,1.495286483749266e-05
38,0.066368623994928,1.466496161718898e-05
39,0.069647598653144,1.4392729684207636e-05
40,0.07306263035112,1.4128293917380146e-05
41,0.07662732479283199,1.3874626343134792e-05
42,0.08040971049816,1.3640816704812316e-05
43,0.084341758947224,1.341345384163977e-05
44,0.088491498659904,1.3202229838448114e-05
45,0.09287253534017599,1.300361248505773e-05
46,0.097389629060208,1.2801577024166622e-05
47,0.10221965397168799,1.2610278754169869e-05
48,0.10725376444280799,1.2432868302232731e-05
49,0.112505566177544,1.2306675721825813e-05
50,0.11796145347192,1.2258306274691152e-05
51,0.12373027195774398,1.232392831633753e-05
52,0.129880050154896,1.2494463278517051e-05
53,0.13626112531964,1.2739832389665277e-05
54,0.14295513167583201,1.30746626564398e-05
55,0.14997567492744798,1.3502578890145989e-05
56,0.157336360778464,1.4031414461401736e-05
57,0.165064400636832,1.467045340969233e-05
58,0.173159794502552,1.542677958919965e-05
59,0.18166335948755197,1.6311318700933354e-05
60,0.190602306999784,1.7339804463552262e-05
61,0.19993581992731999,1.8529115742946645e-05
62,0.209786349605944,1.9932847957780827e-05
63,0.220058656107824,2.1617646351396548e-05
64,0.23088879647271998,2.3677774708191004e-05
65,0.24224955929268,2.624138642780918e-05
66,0.254113733159752,2.9402842863691457e-05
67,0.266630980817672,3.333839566692366e-05
68,0.279678850930656,3.80206776635002e-05
69,0.293447823354368,4.287952012424499e-05
70,0.307883475272904,4.7776736923372745e-05
71,0.322958595278312,5.320722480087645e-05
72,0.33885005752228,5.9223038822594166e-05
73,0.355462622076976,6.582041813112326e-05
74,0.37289152887023197,7.301335348753128e-05
75,0.391245623533856,8.073232686627043e-05
76,0.410402454732064,8.893762566570183e-05
77,0.43064774224835195,9.797025864665051e-05
78,0.45183182333898403,0.00010821251560075027
79,0.47394109229998393,0.00012053524916061479
80,0.497329297434728,0.00013592816641867553
81,0.521601873327912,0.00015375168850750745
82,0.5473982880664079,0.00017065343817554266
83,0.574269553419008,0.00018566141938592854
84,0.602446966353304,0.00020081201603791847
85,0.631930526869296,0.0002158240776091628
86,0.6630195604544559,0.0002302697123271476
87,0.695754884220712,0.00024311869226019693
88,0.72974193275276,0.00025299922674102993
89,0.765334454353976,0.00025999040202021647
90,0.80300864866352,0.0002669327075525191
91,0.8428597556092239,0.0002760821482368772
92,0.8837040789451759,0.000287849773335245
93,0.9273375715962079,0.0003009354534532578
94,0.9731887939953279,0.0003149277672235099
95,1.020441403903976,0.000328668576398826
96,1.070673662983368,0.0003425703235180652
97,1.123042017586992,0.0003555723410704854
98,1.178553289809072,0.00036741834120353586
99,1.236132629035504,0.000377856848265494
100,1.297317479815576,0.0003897400627599374
101,1.360964963015304,0.000399970056617396
102,1.4278914208732478,0.0004106143876427029
103,1.497933584941696,0.00042411097492883184
104,1.571608471971736,0.0004375209924443028
105,1.648725602107704,0.0004514250121670078
106,1.7296931464688798,0.00046802304220538077
107,1.8147560077268319,0.00048767582072077473
108,1.903941397289512,0.0005075928006516807
109,1.9971676809330638,0.0005283811561474544
110,2.095387257935808,0.000549336785494119
111,2.1983008028102717,0.0005698378691368883
112,2.306262063859832,0.0005894841958435134
113,2.419679212203768,0.0006082541273386021
114,2.5385794592500317,0.0006289638944733065
115,2.662894776478744,0.0006452810989311106
116,2.7937000145040076,0.0006515119725719747
117,2.93107680754968,0.0006518432806858104
118,3.0750115499117836,0.0006433954963146212
119,3.226238949605024,0.0006370995727664208
120,3.384772612333376,0.0006598695686881982
121,3.5505172981690083,0.0007048042884218409
122,3.725486651300368,0.0007413482195003461
123,3.9087146667451598,0.000781253694914796
124,4.10001086464772,0.0008250951026790087
125,4.302028357283368,0.000872154755540545
126,4.513447391366432,0.000923381663362146
127,4.73403666992932,0.0009777169276438168
128,4.967320070301816,0.0010385752034741363
129,5.211610485190896,0.001104062284604151
130,5.466676617628968,0.001168063606552187
131,5.734708985956168,0.0012293418007028605
132,6.0157348015804475,0.0012915956165716065
133,6.312842559304359,0.0013550018735020767
134,6.6230934270690875,0.0014133437299819677
135,6.9459023596036635,0.001460069330719943
136,7.288902156838623,0.0014852170165055927
137,7.648623364260087,0.00149623047077436
138,8.024875502012392,0.001504728326723458
139,8.41712794764047,0.0014946461335447522
140,8.830795771326777,0.0014806274064849557
141,9.266382384118415,0.0014263944817969768
142,9.716635945796183,0.0013383382710518317
143,10.196063546387911,0.0007562485583261171
144,10.196083938617031,0.0013417939601281246
145,10.697525568241927,0.0006585473719923734
146,11.220297532111775,0.0004906021127257636
147,11.277346248883143,0.00046695111582117254
148,11.332490167097871,0.0004458157335158226
149,11.387552451088743,0.00042508952509611424
150,11.4427371864154,0.0004047825341873442
151,11.497799470406273,0.0003848775821431708
152,11.552984205732928,0.000365535973925177
153,11.608032884019822,0.000346568453631538
154,11.66317680223455,0.00032787321073093467
155,11.718293509041327,0.00030914121084577365
156,11.774389826534374,0.00029040106394538574
157,11.831234457746103,0.0002670729646334454
158,11.889099516756032,0.0002452112138656717
159,11.946842124430175,0.00022474394309711756
160,12.00467997203215,0.00020474010057349877
161,12.062490608226176,0.00018518391414515506
162,12.084220438593553,0.00030127387349116933
163,12.084244607766095,0.0001766889431880756
164,12.120382878644056,0.00029020738306720074
165,12.178247937653984,0.0002711744340594122
166,12.236058573848007,0.00025325988608952167
167,12.293814787226127,0.0002357459692028844
168,12.349026733960736,0.00021857118525404716
169,12.412334074561063,0.0001955708637312288
170,12.47298830288607,0.00017478846177959627
171,12.53366974261903,0.0001561531367983053
172,12.594337576648016,0.00013769712603284434
173,12.654991804973022,0.00011941542965971566
174,12.715659639002007,0.00010130576779918582
175,12.749008076606534,0.00012063108978612879
176,12.749033573695785,9.138385033806776e-05
177,12.776327473030992,0.00011374529861611025
178,12.836995307059976,9.849514200085277e-05
179,12.897663141088959,8.34065119522627e-05
180,12.958222129486135,6.847140652763365e-05
181,12.968018236348854,6.586302025296744e-05
182,12.97773270898772,6.321354415812299e-05
183,12.987433575922607,6.065467489761829e-05
184,12.99714804856147,5.8183990234457104e-05
185,13.00684891549636,5.579761967403227e-05
186,13.016563388135223,5.3493506799367607e-05
187,13.026250649366135,5.126811350814202e-05
188,13.035965122004999,4.9119070010573024e-05
189,13.045679594643863,4.704406410024778e-05
190,13.055081687122291,5.3512567680443064e-05
191,13.05510779646822,4.502363660416902e-05
192,13.071979420429471,5.02342576440595e-05
193,13.088578379280191,4.713910637698044e-05
194,13.105177338130911,4.422270109417957e-05
195,13.121776296981631,4.147498627288408e-05
196,13.138388861536328,3.8885732511920916e-05
197,13.154987820387047,3.644597072155419e-05
198,13.171586779237767,3.414713009352525e-05
199,13.188185738088487,3.198107135700396e-05
200,13.204798302643184,2.9940204023849327e-05
201,13.220744572744477,3.153879809543921e-05
202,13.220771014069586,2.801579643068325e-05
203,13.231451876732168,3.0425877761072862e-05
204,13.241520097674407,2.935134332667117e-05
205,13.25157471291267,2.8314852519297713e-05
206,13.261642933854912,2.7315144768856555e-05
207,13.271697549093174,2.6350879167819444e-05
208,13.28175216433144,2.5420837140671525e-05
209,13.29182038527368,2.452383250430756e-05
210,13.301875000511943,2.3658720195147706e-05
211,13.311943221454182,2.2824330750016815e-05
212,13.321603555636356,2.4003548286234557e-05
213,13.321630198325881,2.202016253295964e-05
214,13.328501363192975,2.349779089106859e-05
215,13.33501849539748,2.3003725845404645e-05
216,13.341508416194031,2.2521079638767803e-05
217,13.348025548398535,2.2049638173829542e-05
218,13.354529074899064,2.1589146678974125e-05
219,13.361032601399591,2.1139320053738187e-05
220,13.36753612790012,2.0699971453873446e-05
221,13.374039654400647,2.0270791721919992e-05
222,13.380543180901174,1.9851633708015574e-05
223,13.386325824142808,2.0760428063647152e-05
224,13.386352597447093,1.944260278585221e-05
225,13.391454955489928,2.0489287181886605e-05
226,13.395876809282127,2.0221057589911303e-05
227,13.400271451666375,1.9957044106966847e-05
228,13.404693305458576,1.9697291988833043e-05
229,13.4091015535468,1.9441622558057375e-05
230,13.413509801635023,1.9190019536538627e-05
231,13.417918049723248,1.894244633340344e-05
232,13.422339903515448,1.8698803686189938e-05
233,13.426748151603672,1.8459016663633053e-05
234,13.43127902518069,1.919360694445504e-05
235,13.43130588828262,1.8222331791115757e-05
236,13.434367345830232,1.9022205060446124e-05
237,13.437564686264592,1.885459085787367e-05
238,13.440789238106902,1.8688974579188287e-05
239,13.444000184245239,1.8525300425230157e-05
240,13.447197524679599,1.8363488648615197e-05
241,13.450408470817935,1.820357797383347e-05
242,13.45361941695627,1.8045551063007286e-05
243,13.456830363094607,1.7889327544405702e-05
244,13.460041309232944,1.773494965974176e-05
245,13.463374849566955,1.8335385132071156e-05
246,13.463401775255123,1.7582695874679567e-05
247,13.594764990003295,1.3408631846369772e-05
248,14.203715482857126,1.0284667446798334e-05
249,14.900164257980615,9.344692090994227e-06
250,15.632872234200144,8.968194432272059e-06
251,16.40004345859088,9.438200964883564e-06
252,17.20570521952972,1.0445571561149445e-05
253,18.04983030560871,1.0058580625382053e-05
254,18.93757527863476,1.0351893190041068e-05
255,19.86609654647688,1.0328251341126643e-05
256,20.844700410654657,9.443599227040876e-06
257,21.866720076219845,7.508035816915661e-06
258,22.94305371205723,6.918345141927605e-06
259,24.06994614386943,8.681406343656116e-06
260,25.251383842921417,7.780139524086412e-06
261,26.49237370827635,7.442845580430753e-06
262,27.792929345638214,6.630997452983179e-06
263,29.159050870460426,6.752266767224251e-06
264,30.590738282742972,6.553977105781223e-06
265,32.087025577503574,5.9444256885065945e-06
266,33.66394027402595,5.274024016746792e-06
267,35.32315587389915,5.195876587996315e-06
268,37.05448170484515,5.602545103507609e-06
269,38.87873449394723,5.015986474813437e-06
270,40.78426779125562,3.7177327846345614e-06
271,40.7843493601721,4.088274995166538e-06
272,42.782700770004766,3.361715560588971e-06
273,44.88931273372077,2.7743302146984176e-06
274,45.109466629756426,2.612669380254484e-06
275,45.32981100564775,2.4761253197013606e-06
276,45.5503050442828,2.3339575452532396e-06
277,45.77075826580593,2.1858304959421133e-06
278,45.99130672725689,2.0314625071398193e-06
279,46.21175994878002,1.8640652041941616e-06
280,46.432240381711104,1.6882208322059643e-06
281,46.65272081464218,1.5097289655063322e-06
282,46.873187641869286,1.3281863096982976e-06
283,47.088606752921294,1.1430691631648497e-06
284,47.32495143668839,9.530189558954791e-07
285,47.55622119287244,7.58234151284932e-07
286,47.787531766168414,5.523200537229911e-07
287,48.018883156576315,3.348698305320914e-07
288,48.25023454698422,1.0547990387317683e-07
289,48.3557528481015,1.5839123931437184e-06
290,48.355849560166504,0.0
291,48.481545120280195,1.5214915452844755e-06
292,48.7127876650563,1.4108586928960732e-06
293,48.94412544976022,1.2961079692044788e-06
294,49.175327177424386,1.1757531433829584e-06
295,49.41582160090417,1.049710567714437e-06
296,49.649322692540274,8.660142269993088e-07
297,49.89207566288007,6.973864048769668e-07
298,50.134570124844316,5.361148435195591e-07
299,50.37739112370399,3.8064013770711175e-07
300,50.619885585668236,2.2946957961737819e-07
301,50.86263855600803,8.118772560829543e-08
302,51.001297707061994,5.450267798228414e-07
303,51.0013997090247,8.442740503648987e-144
304,51.105201046492155,4.936337536025736e-07
305,51.347967622535926,3.82008849631056e-07
306,51.590693381467766,2.7370318492663375e-07
307,51.832902123648516,1.6757583824310694e-07
308,51.8721409739153,1.5141882859755895e-07
309,51.91102607587871,1.3508751875531315e-07
310,51.94973430369043,1.1863645733701607e-07
311,51.98851056002203,1.0206481869931621e-07
312,52.02734123916953,8.537056126314902e-08
313,52.066239946836916,6.855216556328725e-08
314,52.10496178035261,5.1607359002527876e-08
315,52.14375164238819,3.453498412688561e-08
316,52.18259592723967,1.733315544297596e-08
317,52.225850657500565,2.612038658389585e-07
318,52.22595510848999,2.148667932089042e-71
319,52.288012921645716,2.3641824562426218e-07
320,52.35424548860089,2.1140964326904537e-07
321,52.420654929707744,1.86106677006528e-07
322,52.48722763926231,1.6049700472007758e-07
323,52.55352823473736,1.3457547360097546e-07
324,52.61999209866011,1.0833318279244644e-07
325,52.686401539766976,8.176249829216282e-08
326,52.752756558057925,5.485546088117453e-08
327,52.819057153532974,2.7603917025397575e-08
328,52.894271013032856,1.5556194796657123e-07
329,52.89437680282356,4.5162718050164005e-43
330,52.92569866129686,1.4050706206427806e-07
331,52.965944333657866,1.2536253355885575e-07
332,53.00625803453875,1.1010509696184663e-07
333,53.046626158235554,9.473333560469843e-08
334,53.08683101348463,7.924505591686361e-08
335,53.127090291549614,6.363883727412536e-08
336,53.167186301166886,4.791292820508687e-08
337,53.20756803056765,3.206574951527945e-08
338,53.247786491520706,1.6095311992870656e-08
339,53.28068622525324,9.920939771120535e-08
340,53.28079278784792,1.698284372555228e-29
341,53.31396463565997,8.951999236725077e-08
342,53.34011479870185,7.976868787883182e-08
343,53.36606087618408,6.996940506448386e-08
344,53.39202055937028,6.012195961863542e-08
345,53.41802105966842,5.0225826339389764e-08
346,53.444035165670535,4.0280742439474024e-08
347,53.4700764830806,3.028616322623228e-08
348,53.49615861760259,2.024137018288817e-08
349,53.52225435782855,1.0146178356029765e-08
350,53.55686813406628,6.662347140652867e-08
351,53.556975249052535,3.1017242422948254e-22
352,53.56595587899947,6.005251696401413e-08
353,53.58354805424043,5.3469582998651025e-08
354,53.60115383518538,4.686440986332913e-08
355,53.6187732218343,4.0237300718006226e-08
356,53.63639260848322,3.358757272519367e-08
357,53.65403920654009,2.6915710644353783e-08
358,53.67168580459697,2.0221024185552312e-08
359,53.68935961406179,1.3503616205850355e-08
360,53.70703342352662,6.763340735844279e-09
361,53.71930647192786,4.807064430211988e-08
362,53.71941391072988,5.024167711197096e-18
363,53.73752380613683,4.33207051233128e-08
364,53.75034037928222,3.855451350706078e-08
365,53.76315695242761,3.377656904492866e-08
366,53.77597352557301,2.8986864970066924e-08
367,53.78881731012635,2.4185570172346857e-08
368,53.80164748897572,1.937232903130344e-08
369,53.814491273529065,1.4547227417087569e-08
370,53.82734866378638,9.710173037968547e-09
371,53.84019244833972,4.861120134797382e-09
372,53.85932263140612,1.823099301925067e-07
373,53.859430350485646,1.0804421602165869e-14
374,54.37901918643951,2.627197615360873e-09
375,54.379127944994806,2.627202869781078e-09
376,57.05673053100986,2.8484506019032994e-09
377,59.837981326375825,2.669114694896687e-09
378,62.77685420230376,3.107312128545995e-09
379,65.87900913164766,3.304900422117023e-09
380,69.11052709439538,3.52791192049873e-09
381,72.50543595619087,3.6196983382780166e-09
382,76.06398061970572,3.9637606381341865e-09
383,79.78397056659978,4.8558005720349185e-09
384,83.71660406093474,5.0951479476516155e-09
385,87.80756713243842,5.805706571853491e-09
386,92.18162408657074,5.8120146887574615e-09
387,96.63622680824096,6.401189804840587e-09
388,101.46014275863574,7.642513994905309e-09
389,106.42427909420718,7.819180890852263e-09
390,111.59701808313864,8.497631691492988e-09
391,117.07675617658458,9.384469324207406e-09
392,122.87837801469472,1.0349823479713123e-08
393,128.89518766688926,1.141667160826698e-08
394,135.23590831364044,1.2635760604917577e-08
395,141.87468911739384,1.3868204292225246e-08
396,148.8406734960661,1.5376758384541644e-08
397,156.15149444201006,1.7047771238331988e-08
398,163.8270162830307,1.8901243002238982e-08
399,171.8662185913298,2.095674979000337e-08
400,180.31455802389124,2.323610396763614e-08
401,189.17346317963242,2.5757244779197776e-08
402,198.43836254201744,2.854421705293482e-08
403,208.20199258934673,3.161247346525784e-08
404,218.43602624594226,3.499824648301983e-08
405,229.13378311115176,3.8703482700522374e-08
406,240.41940162805233,4.2779413567172406e-08
407,252.20562841704583,4.72139385034406e-08
408,264.5844788541219,5.203963210983983e-08
409,277.61819903497087,5.7285658523352466e-08
410,291.2480259241203,6.293887635757463e-08
411,305.5305184329985,6.901466760063036e-08
412,320.538480683581,7.551169256415967e-08
413,336.2741712227277,8.240662533194127e-08
414,352.82949658079673,8.967989212151355e-08
415,370.102345949448,9.725272201352182e-08
416,388.3003015542434,1.0507869376907931e-07
417,407.44096917612796,1.1308108070415988e-07
418,427.38464544667596,1.210966147495116e-07
419,448.40609755768287,1.2904215081163003e-07
420,470.35009803248636,1.3675777938811437e-07
421,493.56801417626673,1.4415344187806354e-07
422,517.6796890142306,1.5099110535201778e-07
423,543.0761504786481,1.5722685459657222e-07
424,569.7807323518381,1.6275939191439493e-07
425,597.8027273296162,1.6749434965451498e-07
426,627.1334685785498,1.7136764118053978e-07
427,658.0906901035903,1.7444786179552138e-07
428,690.3356642985513,1.7661868580780047e-07
429,724.2072820380669,1.7797880105302826e-07
430,759.7076386005494,1.785776900835416e-07
431,797.3266073576549,1.786017995296409e-07
432,836.036998476307,1.7807697193912154e-07
433,877.4542580066884,1.7802053785069927e-07
434,920.4475614685377,1.7614322948167625e-07
435,965.6097093840892,1.7404718890722638e-07
436,1012.9435181340659,1.7165249527021836e-07
437,1062.4189055069771,1.689961158652184e-07
438,1114.9666105004128,1.6641193359679836e-07
439,1169.663077928482,1.6380672816900213e-07
440,1227.567198914525,1.6117355621666855e-07
441,1287.4796170473537,1.5871194601167054e-07
442,1350.7384941301189,1.5661879910676476e-07
443,1417.1252273170392,1.544987288310902e-07
444,1486.8004183378464,1.5346610413969308e-07
445,1559.7469648226431,1.5236996693847748e-07
446,1636.3242206248435,1.5279043449652208e-07
