,E (eV),I (erg/s/cm**2)
0,0.010734900437064,2.3892956733977497e-05
1,0.011265522892127998,2.3882749542909564e-05
2,0.011809751051167999,2.375902297670291e-05
3,0.012394796322136,2.3546296623742402e-05
4,0.013007053001056,2.325101975394794e-05
5,0.013646521087927998,2.291379788865101e-05
6,0.014313200582752,2.2524072432786406e-05
7,0.015007091485528,2.2074753337991173e-05
8,0.015755405204207998,2.1595668432725832e-05
9,0.016530930330839997,2.1081451596015747e-05
10,0.017333666865423997,2.054615891014141e-05
11,0.018190826215912,2.0020048152570498e-05
12,0.019075196974352,1.9468983716636277e-05
13,0.020013990548696,1.890074606327956e-05
14,0.020993601234968,1.8314049472011067e-05
15,0.022027634737144,1.7723524666123325e-05
16,0.023116091055223997,1.715237657535734e-05
17,0.024245364485232,1.659057164562629e-05
18,0.025442666435119998,1.6041499865873636e-05
19,0.026694391200912,1.5492361942510255e-05
20,0.028000538782607998,1.4948664550239336e-05
21,0.029374714884183997,1.4414860155985104e-05
22,0.03081691950564,1.3867830642590387e-05
23,0.032340758350952,1.3344865963914044e-05
24,0.033919020012168,1.2821177813987343e-05
25,0.035592521601215996,1.2329000080222999e-05
26,0.037334051710144,1.1854566080924029e-05
27,0.039170821746904,1.1395158030132688e-05
28,0.04108922600752,1.0953182826468166e-05
29,0.043116475899943996,1.053065792624514e-05
30,0.045238965720199996,1.0123942393293218e-05
31,0.047443089764311996,9.727747421556214e-06
32,0.049769665144208,9.348845148077965e-06
33,0.052232297563863994,8.987728362009968e-06
34,0.054790169911352,8.637078393909093e-06
35,0.05748409929859999,8.300197182210413e-06
36,0.060300480021632,7.977621750001893e-06
37,0.063252917784424,7.670550587045197e-06
38,0.066368623994928,7.376846753631096e-06
39,0.069647598653144,7.095842175132661e-06
40,0.07306263035112,6.822163295085629e-06
41,0.07662732479283199,6.558956605491149e-06
42,0.08040971049816,6.310985052243143e-06
43,0.084341758947224,6.068601203836e-06
44,0.088491498659904,5.840171733098959e-06
45,0.09287253534017599,5.621353314208699e-06
46,0.097389629060208,5.4094504855432085e-06
47,0.10221965397168799,5.218046380451041e-06
48,0.10725376444280799,5.0350672420127324e-06
49,0.112505566177544,4.864555430964645e-06
50,0.11796145347192,4.71335460486372e-06
51,0.12373027195774398,4.586696933495946e-06
52,0.129880050154896,4.487114576417117e-06
53,0.13626112531964,4.401183565475325e-06
54,0.14295513167583201,4.337660507628513e-06
55,0.14997567492744798,4.292298027715164e-06
56,0.157336360778464,4.267749127759863e-06
57,0.165064400636832,4.26722111473752e-06
58,0.173159794502552,4.296558053213348e-06
59,0.18166335948755197,4.357412854223275e-06
60,0.190602306999784,4.4536772320119404e-06
61,0.19993581992731999,4.586715536554595e-06
62,0.209786349605944,4.768074920087684e-06
63,0.220058656107824,5.0062269788668195e-06
64,0.23088879647271998,5.322763754437849e-06
65,0.24224955929268,5.739981244908233e-06
66,0.254113733159752,6.278217314891198e-06
67,0.266630980817672,6.973112310080329e-06
68,0.279678850930656,7.815739214387612e-06
69,0.293447823354368,8.698951929023585e-06
70,0.307883475272904,9.58902591391647e-06
71,0.322958595278312,1.0588453627495919e-05
72,0.33885005752228,1.171693640169678e-05
73,0.355462622076976,1.2982629241424662e-05
74,0.37289152887023197,1.4400988873767989e-05
75,0.391245623533856,1.593010131074733e-05
76,0.410402454732064,1.75580730421352e-05
77,0.43064774224835195,1.939253683841725e-05
78,0.45183182333898403,2.1458533606701692e-05
79,0.47394109229998393,2.3876635973552948e-05
80,0.497329297434728,2.6838068207410067e-05
81,0.521601873327912,3.030339432939204e-05
82,0.5473982880664079,3.3748131190282185e-05
83,0.574269553419008,3.694034067531618e-05
84,0.602446966353304,4.0308847698574924e-05
85,0.631930526869296,4.3817664160299834e-05
86,0.6630195604544559,4.7444022096968605e-05
87,0.695754884220712,5.1033784617885594e-05
88,0.72974193275276,5.421412002324689e-05
89,0.765334454353976,5.6951385906848554e-05
90,0.80300864866352,5.980366236558672e-05
91,0.8428597556092239,6.338620750061076e-05
92,0.8837040789451759,6.734395816432773e-05
93,0.9273375715962079,7.157079135983573e-05
94,0.9731887939953279,7.620364846756384e-05
95,1.020441403903976,8.108191766100908e-05
96,1.070673662983368,8.624443756380264e-05
97,1.123042017586992,9.155475922011344e-05
98,1.178553289809072,9.697552318652104e-05
99,1.236132629035504,0.0001026899227762988
100,1.297317479815576,0.00010954664047303713
101,1.360964963015304,0.00011661657976509155
102,1.4278914208732478,0.00012426031341563002
103,1.497933584941696,0.00013358721952114194
104,1.571608471971736,0.000142784082891898
105,1.648725602107704,0.00015174413069781852
106,1.7296931464688798,0.0001619291401432987
107,1.8147560077268319,0.00017347672230394855
108,1.903941397289512,0.00018587823895135992
109,1.9971676809330638,0.00019880287899666697
110,2.095387257935808,0.00021246370578505621
111,2.1983008028102717,0.00022744085617127635
112,2.306262063859832,0.0002428854283125049
113,2.419679212203768,0.00025835912048869714
114,2.5385794592500317,0.00027552845610212464
115,2.662894776478744,0.0002922577215389889
116,2.7937000145040076,0.0003051707546006225
117,2.93107680754968,0.00031527875574102477
118,3.0750115499117836,0.00032085683038894603
119,3.226238949605024,0.00032614714241965495
120,3.384772612333376,0.0003465960795672763
121,3.5505172981690083,0.0003742485957816044
122,3.725486651300368,0.0003960875584525631
123,3.9087146667451598,0.00042019999590646375
124,4.10001086464772,0.00044736773574850346
125,4.302028357283368,0.0004779073421394885
126,4.513447391366432,0.0005123650518935915
127,4.73403666992932,0.000549489284050339
128,4.967320070301816,0.000590905670991441
129,5.211610485190896,0.0006370686419455799
130,5.466676617628968,0.0006848586816580542
131,5.734708985956168,0.0007342943087710794
132,6.0157348015804475,0.0008404693807706442
133,6.312842559304359,0.0009130533574621701
134,6.6230934270690875,0.0009907292016800022
135,6.9459023596036635,0.0010742632108073002
136,7.288902156838623,0.0011527817730323218
137,7.648623364260087,0.0012198996182925773
138,8.024875502012392,0.0012867365711879664
139,8.41712794764047,0.0013642098693500864
140,8.830795771326777,0.0014266937152602396
141,9.266382384118415,0.0014838331855637219
142,9.716635945796183,0.0015240463609943683
143,10.196063546387911,0.000818520561767942
144,10.196083938617031,0.001624651934219118
145,10.697525568241927,0.0007297328973699574
146,11.220297532111775,0.000513103668981057
147,11.277346248883143,0.00048426603461169205
148,11.332490167097871,0.0004551129589329886
149,11.387552451088743,0.00042556010519259277
150,11.4427371864154,0.00039560695352589513
151,11.497799470406273,0.0003652432880520491
152,11.552984205732928,0.00033487109722489365
153,11.608032884019822,0.0003040977907624179
154,11.66317680223455,0.0002725061972253629
155,11.718293509041327,0.00024008108599972569
156,11.774389826534374,0.0002068262351407318
157,11.831234457746103,0.0001698885585900502
158,11.889099516756032,0.0001324954894504968
159,11.946842124430175,9.461829125859773e-05
160,12.00467997203215,5.6248438809022844e-05
161,12.062490608226176,1.7374729694958052e-05
162,12.084220438593553,0.00036490673426137785
163,12.084244607766095,0.0
164,12.120382878644056,0.00034784279187641173
165,12.178247937653984,0.0003174657391424285
166,12.236058573848007,0.00028693948236008417
167,12.293814787226127,0.0002560671908193984
168,12.349026733960736,0.00022479999500089144
169,12.412334074561063,0.00019116609245217628
170,12.47298830288607,0.0001572758091766097
171,12.53366974261903,0.00012316249570278043
172,12.594337576648016,8.881430188066515e-05
173,12.654991804973022,5.422052369917734e-05
174,12.715659639002007,1.9369914406705218e-05
175,12.749008076606534,0.00013411202081971236
176,12.749033573695785,0.0
177,12.776327473030992,0.00012236479597006766
178,12.836995307059976,9.598629794065157e-05
179,12.897663141088959,6.949053441872062e-05
180,12.958222129486135,4.2878298859489434e-05
181,12.968018236348854,3.781986396528679e-05
182,12.97773270898772,3.295858488235358e-05
183,12.987433575922607,2.8278233022748937e-05
184,12.99714804856147,2.3771514880613273e-05
185,13.00684891549636,1.943131099014976e-05
186,13.016563388135223,1.5250856365941255e-05
187,13.026250649366135,1.1223587796402013e-05
188,13.035965122004999,7.34330215423151e-06
189,13.045679594643863,3.6040385397252756e-06
190,13.055081687122291,4.248477389017297e-05
191,13.05510779646822,0.0
192,13.071979420429471,3.6906561596396505e-05
193,13.088578379280191,3.167223460399032e-05
194,13.105177338130911,2.6768880408883765e-05
195,13.121776296981631,2.2173884950541123e-05
196,13.138388861536328,1.7866328084999213e-05
197,13.154987820387047,1.382655698690023e-05
198,13.171586779237767,1.0036439156394426e-05
199,13.188185738088487,6.478964529292774e-06
200,13.204798302643184,3.1383998774551178e-06
201,13.220744572744477,1.4831389959225771e-05
202,13.220771014069586,0.0
203,13.231451876732168,1.308048642155486e-05
204,13.241520097674407,1.139526622216027e-05
205,13.25157471291267,9.773735004211973e-06
206,13.261642933854912,8.213365676948277e-06
207,13.271697549093174,6.7115826910062785e-06
208,13.28175216433144,5.265951810870653e-06
209,13.29182038527368,3.874178379746328e-06
210,13.301875000511943,2.533991576792031e-06
211,13.311943221454182,1.2432830315803702e-06
212,13.321603555636356,6.844856686154081e-06
213,13.321630198325881,0.0
214,13.328501363192975,6.083858537774233e-06
215,13.33501849539748,5.340110123321853e-06
216,13.341508416194031,4.614391844563157e-06
217,13.348025548398535,3.9062120504071444e-06
218,13.354529074899064,3.2151004016198464e-06
219,13.361032601399591,2.54060038411162e-06
220,13.36753612790012,1.8822701357767844e-06
221,13.374039654400647,1.239670951313035e-06
222,13.380543180901174,6.123835517881373e-07
223,13.386325824142808,3.725813500839046e-06
224,13.386352597447093,0.0
225,13.391454955489928,3.3251385093733886e-06
226,13.395876809282127,2.9310021739908817e-06
227,13.400271451666375,2.5432936682753253e-06
228,13.404693305458576,2.1619126043689447e-06
229,13.4091015535468,1.7867314188078463e-06
230,13.413509801635023,1.4176408625528948e-06
231,13.417918049723248,1.0545289489651348e-06
232,13.422339903515448,6.972923993064717e-07
233,13.426748151603672,3.458163381693806e-07
234,13.43127902518069,2.3270666981838737e-06
235,13.43130588828262,0.0
236,13.434367345830232,2.0817952687162006e-06
237,13.437564686264592,1.8393573556141248e-06
238,13.440789238106902,1.5997884110004313e-06
239,13.444000184245239,1.3630523035764237e-06
240,13.447197524679599,1.1291069209624762e-06
241,13.450408470817935,8.979159941324406e-07
242,13.45361941695627,6.694474914192156e-07
243,13.456830363094607,4.436625522633567e-07
244,13.460041309232944,2.2052432218127344e-07
245,13.463374849566955,6.815428744314845e-06
246,13.463401775255123,0.0
247,13.594764990003295,8.567314372074021e-10
248,14.203715482857126,6.21913797395901e-10
249,14.900164257980615,6.084915779304736e-10
250,15.632872234200144,7.543163536809377e-10
251,16.40004345859088,6.94659564160886e-10
252,17.20570521952972,1.0644236085954156e-09
253,18.04983030560871,1.1539396749374266e-09
254,18.93757527863476,1.312544100624237e-09
255,19.86609654647688,1.8537732243399271e-09
256,20.844700410654657,1.594201156890823e-09
257,21.866720076219845,1.91222363541852e-09
258,22.94305371205723,1.1481775946748107e-09
259,24.06994614386943,1.4905396906256752e-09
260,25.251383842921417,1.2813444776844666e-09
261,26.49237370827635,1.6679186722558552e-09
262,27.792929345638214,1.5116512279869848e-09
263,29.159050870460426,1.7223995009295577e-09
264,30.590738282742972,1.6796251071601139e-09
265,32.087025577503574,1.944101168467338e-09
266,33.66394027402595,1.7491429535323815e-09
267,35.32315587389915,1.6088863881995341e-09
268,37.05448170484515,1.9849853330199556e-09
269,38.87873449394723,2.2280147178809887e-09
270,40.78426779125562,2.3942199135262137e-09
271,40.7843493601721,2.5640015054713972e-09
272,42.782700770004766,1.2703280920853106e-09
273,44.88931273372077,2.3924165172546183e-09
274,45.109466629756426,2.4523835882322445e-09
275,45.32981100564775,2.3857428128681065e-09
276,45.5503050442828,2.321224175338759e-09
277,45.77075826580593,2.2587619774539516e-09
278,45.99130672725689,2.1982635669400106e-09
279,46.21175994878002,2.1396597876929595e-09
280,46.432240381711104,2.0828806684960016e-09
281,46.65272081464218,2.027861051127616e-09
282,46.873187641869286,1.9745773592346473e-09
283,47.088606752921294,1.923000319294192e-09
284,47.32495143668839,2.0655794968845955e-09
285,47.55622119287244,2.1046750653828743e-09
286,47.787531766168414,2.144315905284087e-09
287,48.018883156576315,2.184520477273301e-09
288,48.25023454698422,2.225261660469103e-09
289,48.3557528481015,2.242161699033457e-09
290,48.355849560166504,1.879246755446972e-282
291,48.481545120280195,2.265524672499461e-09
292,48.7127876650563,2.3072805947598796e-09
293,48.94412544976022,2.3495282656996503e-09
294,49.175327177424386,2.392289242172412e-09
295,49.41582160090417,2.435460650899751e-09
296,49.649322692540274,1.8365843215019386e-09
297,49.89207566288007,1.3155457509545662e-09
298,50.134570124844316,9.43809212987725e-10
299,50.37739112370399,6.781736285653986e-10
300,50.619885585668236,4.880400670585059e-10
301,50.86263855600803,3.5173867645028125e-10
302,51.001297707061994,2.941315974310189e-10
303,51.0013997090247,3.489914026308806e-105
304,51.105201046492155,2.543148102580279e-10
305,51.347967622535926,1.8391787842550248e-10
306,51.590693381467766,1.3322479010196308e-10
307,51.832902123648516,9.668684877105779e-11
308,51.8721409739153,9.582049831604374e-11
309,51.91102607587871,9.495681136993342e-11
310,51.94973430369043,9.410118928380056e-11
311,51.98851056002203,9.325394475559775e-11
312,52.02734123916953,9.241507154596138e-11
313,52.066239946836916,9.158445412343832e-11
314,52.10496178035261,9.076168365954039e-11
315,52.14375164238819,8.994689597245999e-11
316,52.18259592723967,8.91402434336193e-11
317,52.225850657500565,8.835863456278204e-11
318,52.22595510848999,3.269022112938264e-55
319,52.288012921645716,8.700164112624931e-11
320,52.35424548860089,8.567503256808195e-11
321,52.420654929707744,8.437055833511205e-11
322,52.48722763926231,8.308764151682071e-11
323,52.55352823473736,8.182552622604441e-11
324,52.61999209866011,8.058435459284994e-11
325,52.686401539766976,7.936339739678191e-11
326,52.752756558057925,7.816242776647302e-11
327,52.819057153532974,7.698105654711306e-11
328,52.894271013032856,7.584428477232401e-11
329,52.89437680282356,1.8193664355517734e-35
330,52.92569866129686,7.512852511666542e-11
331,52.965944333657866,7.444050722512402e-11
332,53.00625803453875,7.375918254716346e-11
333,53.046626158235554,7.308470832765523e-11
334,53.08683101348463,7.241680336284953e-11
335,53.127090291549614,7.175546348372106e-11
336,53.167186301166886,7.110041260998258e-11
337,53.20756803056765,7.045226894586263e-11
338,53.247786491520706,6.981028805245129e-11
339,53.28068622525324,6.916164279148464e-11
340,53.28079278784792,5.920520447853465e-26
341,53.31396463565997,6.876988004282898e-11
342,53.34011479870185,6.836503410130341e-11
343,53.36606087618408,6.796257916822097e-11
344,53.39202055937028,6.756280022710598e-11
345,53.41802105966842,6.716541100964917e-11
346,53.444035165670535,6.677070536005132e-11
347,53.4700764830806,6.637854186316383e-11
348,53.49615861760259,6.598894092617189e-11
349,53.52225435782855,6.560154727647582e-11
350,53.55686813406628,6.522395540760764e-11
351,53.556975249052535,7.967493121219643e-21
352,53.56595587899947,6.495914122267039e-11
353,53.58354805424043,6.470075814173734e-11
354,53.60115383518538,6.444334783837238e-11
355,53.6187732218343,6.418707414471078e-11
356,53.63639260848322,6.393208488220793e-11
357,53.65403920654009,6.367808773795868e-11
358,53.67168580459697,6.342505126547696e-11
359,53.68935961406179,6.317333489344866e-11
360,53.70703342352662,6.291327949615705e-11
361,53.71930647192786,6.266322698752678e-11
362,53.71941391072988,7.929631820167749e-18
363,53.73752380613683,6.249310930392141e-11
364,53.75034037928222,6.231268065224968e-11
365,53.76315695242761,6.213281230282661e-11
366,53.77597352557301,6.195334130003449e-11
367,53.78881731012635,6.177462613446536e-11
368,53.80164748897572,6.159629341126365e-11
369,53.814491273529065,6.141870172228701e-11
370,53.82734866378638,6.124136083491471e-11
371,53.84019244833972,6.09611749369895e-11
372,53.85932263140612,6.089544436908301e-11
373,53.859430350485646,6.225389242256219e-16
374,54.37901918643951,4.7933964040717174e-11
375,54.379127944994806,4.793405990910092e-11
376,57.05673053100986,1.7718298937242503e-11
377,59.837981326375825,1.3645576147980117e-11
378,62.77685420230376,1.1423997752549571e-11
379,65.87900913164766,1.2977389118477199e-11
380,69.11052709439538,1.1026824700115525e-11
381,72.50543595619087,1.1777788993963595e-11
382,76.06398061970572,1.2577717428280041e-11
383,79.78397056659978,1.3874062243039398e-11
384,83.71660406093474,1.509211820786963e-11
385,87.80756713243842,1.6560671275218475e-11
386,92.18162408657074,1.8231519811886773e-11
387,96.63622680824096,2.0075658117502513e-11
388,101.46014275863574,2.216606519623381e-11
389,106.42427909420718,2.4466469242950863e-11
390,111.59701808313864,2.70188065877293e-11
391,117.07675617658458,2.987164098552672e-11
392,122.87837801469472,3.306193611679123e-11
393,128.89518766688926,3.659601355547423e-11
394,135.23590831364044,4.0541272885821276e-11
395,141.87468911739384,4.491970430145674e-11
396,148.8406734960661,4.983878747293649e-11
397,156.15149444201006,5.527596296856512e-11
398,163.8270162830307,6.137801586548701e-11
399,171.8662185913298,6.81499089950255e-11
400,180.31455802389124,7.577347744298633e-11
401,189.17346317963242,8.420969337986132e-11
402,198.43836254201744,9.363998538146359e-11
403,208.20199258934673,1.0413074110818941e-10
404,218.43602624594226,1.1588647519071436e-10
405,229.13378311115176,1.288723628220843e-10
406,240.41940162805233,1.4347467255090808e-10
407,252.20562841704583,1.5962771285564381e-10
408,264.5844788541219,1.7759237964304603e-10
409,277.61819903497087,1.975600239142839e-10
410,291.2480259241203,2.1964889077517114e-10
411,305.5305184329985,2.439743697104495e-10
412,320.538480683581,2.7086033409456286e-10
413,336.2741712227277,3.004035691048503e-10
414,352.82949658079673,3.326679082632219e-10
415,370.102345949448,3.676215868521055e-10
416,388.3003015542434,4.0681713019454873e-10
417,407.44096917612796,4.531166579317896e-10
418,427.38464544667596,5.060734666657846e-10
419,448.40609755768287,5.674802640609924e-10
420,470.35009803248636,6.378409126627773e-10
421,493.56801417626673,7.363643358674427e-10
422,517.6796890142306,8.484696553699908e-10
423,543.0761504786481,9.20126932409466e-10
424,569.7807323518381,1.0586891624092886e-09
425,597.8027273296162,1.2695130786967465e-09
426,627.1334685785498,1.5092090717499936e-09
427,658.0906901035903,1.780072060478294e-09
428,690.3356642985513,2.0755841994015415e-09
429,724.2072820380669,2.394175761065307e-09
430,759.7076386005494,2.7516107363654856e-09
431,797.3266073576549,3.1446708604667877e-09
432,836.036998476307,3.5462974724006925e-09
433,877.4542580066884,3.980600015220452e-09
434,920.4475614685377,4.469305822901464e-09
435,965.6097093840892,4.990800207229664e-09
436,1012.9435181340659,5.537077980145842e-09
437,1062.4189055069771,6.091607844781831e-09
438,1114.9666105004128,6.663930647298141e-09
439,1169.663077928482,7.239624762399012e-09
440,1227.567198914525,7.814362422607077e-09
441,1287.4796170473537,8.387439295937055e-09
442,1350.7384941301189,8.992447298199616e-09
443,1417.1252273170392,9.550673927395182e-09
444,1486.8004183378464,1.0110601738209985e-08
445,1559.7469648226431,1.0673006703900083e-08
446,1636.3242206248435,1.1231812283657458e-08
447,1716.7583261502325,1.1778699626232282e-08
448,1801.0500705296406,1.230230076581226e-08
449,1889.4283153096483,1.2831345344926191e-08
