,E (eV),I (erg/s/cm**2)
0,6.802851988,1.7360186893528458e-05
1,7.042754045265218,1.695996933626085e-05
2,7.2911162302986705,1.6644223909633492e-05
3,7.548236888881904,1.6287519846842824e-05
4,7.814424887910474,1.5887923466673826e-05
5,8.0899999864351,1.544336907723637e-05
6,8.375293219832324,1.4943369921706513e-05
7,8.670647297390389,1.4400241303057586e-05
8,8.976417013977027,1.3806617015579905e-05
9,9.292969676346978,1.315512411549086e-05
10,9.620685544252527,1.2448729108930866e-05
11,9.95995828726861,1.1498599065985025e-05
12,10.311195457727088,1.0508868309680353e-05
13,10.674818980263586,9.603240967456662e-06
14,11.051265658616357,8.624850281653357e-06
15,11.440987700425495,7.569424796928242e-06
16,11.844453260345427,6.4250113479575446e-06
17,12.26214700251832,5.200178397382507e-06
18,12.694570682694135,3.8859355388331605e-06
19,13.142243751017716,2.4750689570937824e-06
20,13.605703976,8.381434366566519e-07
21,14.085508090503225,8.276640304769965e-07
22,14.582232460651763,8.258704978542117e-07
23,15.096473777791019,8.272359072103477e-07
24,15.62884977584816,8.307986752991452e-07
25,16.17999997284299,8.357615485266583e-07
26,16.750586439610224,8.414637752801666e-07
27,17.341294594780777,8.468166248222696e-07
28,17.95283402792684,8.520203069195081e-07
29,18.585939352639535,8.563138561138495e-07
30,19.241371088450634,8.590270030776269e-07
31,19.91991657459164,8.612443899612041e-07
32,20.622390915454176,8.625599893503801e-07
33,21.349637960472748,8.617430909874838e-07
34,22.102531317205504,8.587887021833458e-07
35,22.8819754008782,8.535853676690647e-07
36,23.688906520663643,8.459869148791312e-07
37,24.52429400500943,8.348947025923136e-07
38,25.389141365333845,8.221295405426549e-07
39,26.284487502035432,8.076284748544386e-07
40,27.211407952,7.899258991400513e-07
41,28.17101618100645,7.712635401278782e-07
42,29.16446492116747,7.499089408581315e-07
43,30.192947555582037,7.264210343563679e-07
44,31.25769955156026,7.009352590454676e-07
45,32.35999994582204,6.735873848927935e-07
46,33.50117287935651,6.424773399154219e-07
47,34.682589189561554,6.113881417137353e-07
48,35.90566805598974,5.791792583339809e-07
49,37.171878705415125,5.445870896812866e-07
50,38.48274217703732,5.097746601378455e-07
51,39.83983314904722,4.725158342720697e-07
52,41.24478183090835,3.872808005300235e-07
53,42.69927592108156,3.497448821188436e-07
54,44.20506263441101,3.110731268903065e-07
55,45.76395080162035,2.7126527904318914e-07
56,47.377813041327286,2.2869658841811416e-07
57,49.04858801001886,1.8629534203502514e-07
58,50.778282730803745,1.430419994268439e-07
59,52.568975004070865,9.85449850177395e-08
60,54.422815904,5.047614428230387e-08
61,56.342032362148956,4.351284109788269e-08
62,58.328929842471,4.2020336441239284e-08
63,60.38589511102802,4.22250643324327e-08
64,62.51539910325658,4.2996041637669484e-08
65,64.71999989150801,4.3967836318904584e-08
66,67.00234575871302,4.503055218625436e-08
67,69.36517837912311,4.615652299546363e-08
68,71.81133611184343,4.734392447445707e-08
69,74.34375741083025,4.8599169398410194e-08
70,76.96548435393859,4.993154157740493e-08
71,79.67966629809445,5.1351461579949654e-08
72,82.4895636618167,5.2869724694882246e-08
73,85.39855184202706,5.449693284878912e-08
74,88.41012526895807,5.62429125945646e-08
75,91.52790160337675,5.811608095511797e-08
76,94.75562608279063,6.012277431685324e-08
77,98.09717602017378,6.226657613646264e-08
78,101.55656546147144,6.454768928258323e-08
79,105.13795000814173,6.696240325161682e-08
80,108.845631808,6.95027057692555e-08
81,112.68406472416184,7.215608216254752e-08
82,116.65785968480594,7.490553450358423e-08
83,120.77179022205604,7.772983670253157e-08
84,125.03079820651315,8.060402299396104e-08
85,129.43999978301602,8.350008770799246e-08
86,134.00469151742604,8.638785619290614e-08
87,138.73035675879046,8.923597249284884e-08
88,143.62267222395897,9.201294054600349e-08
89,148.68751482111628,9.468815324465519e-08
90,153.9309687081493,9.723284757380088e-08
91,159.3593325967331,9.962093350027732e-08
92,164.97912732390552,1.0182965770700671e-07
93,170.79710368350987,1.0384007891161998e-07
94,176.82025053791614,1.0563734742736409e-07
95,183.0558032072977,1.0721079617559481e-07
96,189.511252165037,1.0855386222609821e-07
97,196.19435204061966,1.0966386632049028e-07
98,203.11313092321498,1.1054168247569068e-07
99,210.27590001628346,1.1119133094385644e-07
100,217.691263616,1.1161952602423153e-07
101,225.3681294488679,1.1183520647595562e-07
102,233.315719369884,1.118490712935688e-07
103,241.54358044438416,1.1167313832330875e-07
104,250.06159641357056,1.1132033812232871e-07
105,258.8799995654878,1.1080415103021721e-07
106,268.0093830345799,1.101382917800089e-07
107,277.4607135162203,1.0933644301590049e-07
108,287.24534444791794,1.084120368904671e-07
109,297.3750296435931,1.07378082132883e-07
110,307.8619374162986,1.0624703278586625e-07
111,318.7186651921057,1.0503069392258543e-07
112,329.95825464781103,1.0374015923538323e-07
113,341.5942073683803,1.0238577527499936e-07
114,353.6405010758323,1.0097712732001726e-07
115,366.1116064132348,9.952304227534876e-08
116,379.02250433143456,9.803160454387436e-08
117,392.3887040798788,9.651018144627199e-08
118,406.22626184642996,9.496545536906524e-08
119,420.5518000325669,9.340346037768038e-08
120,435.382527232,9.182962153640072e-08
121,450.7362588963753,9.024879556606722e-08
122,466.631438739768,8.86653118108778e-08
123,483.0871608887683,8.708301273681013e-08
124,500.1231928257805,8.550529339367724e-08
125,517.7599991323361,8.393513941677279e-08
126,536.0187660691598,8.237516327683617e-08
127,554.9214270324406,8.082763857881806e-08
128,574.4906888944753,7.92945322800265e-08
129,594.7500592858256,7.777753476785558e-08
130,615.7238748312366,7.627808777728184e-08
131,637.437330385572,7.479741017026504e-08
132,659.9165092942615,7.333652163043406e-08
133,683.1884147367606,7.189626434607528e-08
134,707.2810021516646,7.047732277320223e-08
135,732.2232128264696,6.90802415835637e-08
136,758.0450086628691,6.770544190970417e-08
137,784.7774081611182,6.63532360016541e-08
138,812.4525236928599,6.502384041344204e-08
139,841.1036000651338,6.371738783575782e-08
140,870.765054464,6.243393768452478e-08
141,901.4725177927506,6.117348555936321e-08
142,933.2628774781754,5.993597166996342e-08
143,966.1743217761763,5.872128833049243e-08
144,1000.246385651561,5.7529286611319875e-08
145,1035.5199982646723,5.635978223196177e-08
146,1072.0375321396803,5.521256077480283e-08
147,1109.8428540648813,5.4087382287287466e-08
148,1148.9813777903112,5.2983985339797377e-08
149,1189.5001185730118,5.1902090597745367e-08
150,1231.4477496638337,5.0841403959490466e-08
151,1274.8746607697833,4.9801619309573025e-08
152,1319.8330185898835,4.8782420931920274e-08
153,1366.3768294762424,4.778348561811827e-08
154,1414.5620043087713,4.680448450743119e-08
155,1464.446425647497,4.584508469182964e-08
156,1516.0900173257382,4.4904950610095645e-08
157,1569.554816319515,4.3983745254969325e-08
158,1624.905047388441,4.308113122291568e-08
159,1682.2072001248252,4.219677161396326e-08
160,1741.530108928,4.133033081149005e-08
161,1802.9450355909432,4.0481475145199135e-08
162,1866.5257549617932,3.9649873461204394e-08
163,1932.3486435577945,3.883519760447866e-08
164,2000.4927713085644,3.803712282714018e-08
165,2071.0399965239026,3.725532813015507e-08
166,2144.0750642766393,3.648949654969911e-08
167,2219.685708132484,3.573931539037929e-08
168,2297.9627555806223,3.5004476417361303e-08
169,2379.000237151466,3.428467600943201e-08
170,2462.8954993303887,3.357961527807929e-08
171,2549.7493215395666,3.2889000158927856e-08
172,2639.6660371743246,3.221254147736115e-08
173,2732.753658952485,3.154995499250626e-08
174,2829.124008603937,3.090096142223908e-08
175,2928.8928513086,3.0265286453011794e-08
176,3032.1800346514765,2.9642660734058433e-08
177,3139.10963263903,2.903281986114239e-08
178,3249.8100947632765,2.8435504349327543e-08
179,3364.4144002632565,2.785045959706032e-08
180,3483.060217856,2.727743584266531e-08
181,3605.890071168281,2.6716188115503692e-08
182,3733.0515099099807,2.6166476180638045e-08
183,3864.6972871019834,2.5628064480303558e-08
184,4000.9855426035233,2.510072207057524e-08
185,4142.079993061411,2.4584222556610766e-08
186,4288.150128553279,2.4078344023822788e-08
187,4439.371416264968,2.3582868969416166e-08
188,4595.925511161245,2.3097584229811168e-08
189,4758.000474289327,2.262228090974089e-08
190,4925.790998660777,2.215675430895346e-08
191,5099.498643079133,2.170080384864811e-08
192,5279.332074362255,2.1254232999062925e-08
193,5465.507317891364,2.0816849205517045e-08
194,5658.248017207874,2.0388463815309074e-08
195,5857.7857026172,1.9968892005614565e-08
196,6064.360069302953,1.9557952711199127e-08
197,6278.2192652916665,1.915546855263112e-08
198,6499.620189540159,1.876126576566849e-08
199,6728.828800526513,1.8375174131626495e-08
200,6966.120435712,1.7997026908010466e-08
201,7211.780142350168,1.7626660760518223e-08
202,7466.103019833567,1.726391569581792e-08
203,7729.394574217573,1.690863499534649e-08
204,8001.971085207047,1.656066515034565e-08
205,8284.159986109216,1.621985579767561e-08
206,8576.300257120163,1.588605965675469e-08
207,8878.74283251633,1.5559132467694158e-08
208,9191.85102232249,1.5238932930536267e-08
209,9516.000948578654,1.492532264533181e-08
210,9851.581997307949,1.461816605357708e-08
211,10198.997286158266,1.4317330380540971e-08
212,10558.664148710905,1.4022685578721869e-08
213,10931.014635782729,1.3734104272526274e-08
214,11316.496034429352,1.3451461703684907e-08
215,11715.5714052344,1.3174635678035073e-08
216,12128.720138592302,1.290350651309308e-08
217,12556.438530569727,1.2637956986816695e-08
218,12999.240379080318,1.2377872287334057e-08
219,13457.657601039418,1.2123139963434468e-08
220,13932.240871424,1.1873649876508397e-08
221,14423.560284645913,1.1629294153065754e-08
222,14932.206039694345,1.1389967138354667e-08
223,15458.789148462356,1.1155565350556989e-08
224,16003.942170468516,1.0925987436803852e-08
225,16568.31997219122,1.0701134128985293e-08
226,17152.60051429475,1.0480908201292778e-08
227,17757.485664978238,1.0265214427894575e-08
228,18383.702044617767,1.0053959542438118e-08
229,19032.00189721173,9.847052197136788e-09
230,19703.163994615898,9.644402923863553e-09
231,20397.994572343745,9.445924095386674e-09
232,21117.32829747623,9.25152988730337e-09
233,21862.029271538242,9.061136241281914e-09
234,22632.992068885917,8.874660828652811e-09
235,23431.1428104688,8.692023014770817e-09
236,24257.440277184603,8.513143824245077e-09
237,25112.877061193878,8.33794590694593e-09
238,25998.480758187845,8.166353504150596e-09
239,26915.315202106052,7.9982924163792e-09
240,27864.481742848,7.833689970932443e-09
241,28847.12056942788,7.672474990634345e-09
242,29864.412079252634,7.51457776294972e-09
243,30917.578296788655,7.359930010054931e-09
244,32007.884340800967,7.208464859127718e-09
245,33136.6399445185,7.060116813539838e-09
246,34305.20102845344,6.914821724449502e-09
247,35514.97133009253,6.772516763251131e-09
248,36767.40408923553,6.6331403942085295e-09
249,38064.003794287404,6.49663234799164e-09
250,39406.327989231795,6.362933595542442e-09
251,40795.98914468749,6.231986322607408e-09
252,42234.656594816406,6.103733904640834e-09
253,43724.058543212544,5.978120882518059e-09
254,45265.98413777183,5.855092938313033e-09
255,46862.2856209376,5.734596871975605e-09
256,48514.88055436921,5.616580578322835e-09
257,50225.754122251696,5.500993024414748e-09
258,51996.96151623964,5.387784227588618e-09
259,53830.630404212105,5.276905233786686e-09
260,55728.963485696,5.1683080963572894e-09
