,E (eV),I (erg/s/cm**2)
0,6.802851988,9.42831759675519e-05
1,7.042754045265218,9.265855729480044e-05
2,7.2911162302986705,9.135594504265455e-05
3,7.548236888881904,8.971598815766511e-05
4,7.814424887910474,8.784903346857602e-05
5,8.0899999864351,8.570280230130292e-05
6,8.375293219832324,8.324738725827986e-05
7,8.670647297390389,8.048386042562298e-05
8,8.976417013977027,7.743259076978883e-05
9,9.292969676346978,7.40056529577832e-05
10,9.620685544252527,7.02284432257941e-05
11,9.95995828726861,6.511769332062035e-05
12,10.311195457727088,5.882209969164285e-05
13,10.674818980263586,5.3725404313720895e-05
14,11.051265658616357,4.824111057859898e-05
15,11.440987700425495,4.233876029063364e-05
16,11.844453260345427,3.596546317430335e-05
17,12.26214700251832,2.910522580336265e-05
18,12.694570682694135,2.1739154180334495e-05
19,13.142243751017716,1.384354991921648e-05
20,13.605703976,4.739874144873698e-06
21,14.085508090503225,4.574860060096839e-06
22,14.582232460651763,4.491748588966044e-06
23,15.096473777791019,4.437102605191025e-06
24,15.62884977584816,4.404863165841319e-06
25,16.17999997284299,4.390069939751533e-06
26,16.750586439610224,4.3887499999326085e-06
27,17.341294594780777,4.397792293205115e-06
28,17.95283402792684,4.414833683288161e-06
29,18.585939352639535,4.438137508281429e-06
30,19.241371088450634,4.467246149481096e-06
31,19.91991657459164,4.500082869627632e-06
32,20.622390915454176,4.536516751313198e-06
33,21.349637960472748,4.575389104929754e-06
34,22.102531317205504,4.617262911518685e-06
35,22.8819754008782,4.660918443567073e-06
36,23.688906520663643,4.705366179271936e-06
37,24.52429400500943,4.784759643307246e-06
38,25.389141365333845,4.790857788439095e-06
39,26.284487502035432,4.828016660789191e-06
40,27.211407952,4.859645389903535e-06
41,28.17101618100645,4.878176642337225e-06
42,29.16446492116747,4.885832119056599e-06
43,30.192947555582037,4.870608197695526e-06
44,31.25769955156026,4.840737306440702e-06
45,32.35999994582204,4.7910280142727104e-06
46,33.50117287935651,4.718121027016499e-06
47,34.682589189561554,4.626446683507283e-06
48,35.90566805598974,4.529514375453527e-06
49,37.171878705415125,4.4003145746380705e-06
50,38.48274217703732,4.249450510469884e-06
51,39.83983314904722,4.0777656744212125e-06
52,41.24478183090835,3.0968879979788054e-06
53,42.69927592108156,2.8378756212087694e-06
54,44.20506263441101,2.5704543498601875e-06
55,45.76395080162035,2.294943110756754e-06
56,47.377813041327286,2.0043440027241354e-06
57,49.04858801001886,1.698658974092114e-06
58,50.778282730803745,1.3778657055124424e-06
59,52.568975004070865,1.0433413516241218e-06
60,54.422815904,6.879271006643915e-07
61,56.342032362148956,5.72983450377517e-07
62,58.328929842471,5.410276901030369e-07
63,60.38589511102802,5.340819402761106e-07
64,62.51539910325658,5.350495810129609e-07
65,64.71999989150801,5.383263504404198e-07
66,67.00234575871302,5.421588829752977e-07
67,69.36517837912311,5.460327081575569e-07
68,71.81133611184343,5.498175925834755e-07
69,74.34375741083025,5.534998774405877e-07
70,76.96548435393859,5.571021061639045e-07
71,79.67966629809445,5.606598097185107e-07
72,82.4895636618167,5.64215109510912e-07
73,85.39855184202706,5.678151879187725e-07
74,88.41012526895807,5.715121433144159e-07
75,91.52790160337675,5.753631039841399e-07
76,94.75562608279063,5.794300930669559e-07
77,98.09717602017378,5.837793226135614e-07
78,101.55656546147144,5.884797112545089e-07
79,105.13795000814173,5.936005464221892e-07
80,108.845631808,5.992083478291936e-07
81,112.68406472416184,6.0536311353821e-07
82,116.65785968480594,6.121142241003755e-07
83,120.77179022205604,6.194963341809807e-07
84,125.03079820651315,6.275255935583973e-07
85,129.43999978301602,6.361965170107787e-07
86,134.00469151742604,6.454797740610528e-07
87,138.73035675879046,6.553211029931678e-07
88,143.62267222395897,6.65641474982666e-07
89,148.68751482111628,6.763385473644487e-07
90,153.9309687081493,6.872893540671039e-07
91,159.3593325967331,6.983540912069269e-07
92,164.97912732390552,7.093807741940114e-07
93,170.79710368350987,7.202104781688206e-07
94,176.82025053791614,7.306828343602565e-07
95,183.0558032072977,7.406414465417559e-07
96,189.511252165037,7.499389148193515e-07
97,196.19435204061966,7.584412043990467e-07
98,203.11313092321498,7.660311663308643e-07
99,210.27590001628346,7.726110962495781e-07
100,217.691263616,7.781042945591917e-07
101,225.3681294488679,7.824556609446557e-07
102,233.315719369884,7.856314112966564e-07
103,241.54358044438416,7.87618045052415e-07
104,250.06159641357056,7.884207150313802e-07
105,258.8799995654878,7.880611621866044e-07
106,268.0093830345799,7.865753760724034e-07
107,277.4607135162203,7.840111299308214e-07
108,287.24534444791794,7.804255202883914e-07
109,297.3750296435931,7.758826157924604e-07
110,307.8619374162986,7.704512929296707e-07
111,318.7186651921057,7.642033088668127e-07
112,329.95825464781103,7.572116372015385e-07
113,341.5942073683803,7.495490719419799e-07
114,353.6405010758323,7.412870900953743e-07
115,366.1116064132348,7.324949529477347e-07
116,379.02250433143456,7.232390206745693e-07
117,392.3887040798788,7.135822526070597e-07
118,406.22626184642996,7.035838657485514e-07
119,420.5518000325669,6.932991256758922e-07
120,435.382527232,6.827792465262274e-07
121,450.7362588963753,6.720713792596603e-07
122,466.631438739768,6.612186701696812e-07
123,483.0871608887683,6.502603740090026e-07
124,500.1231928257805,6.392320084119921e-07
125,517.7599991323361,6.281655382375996e-07
126,536.0187660691598,6.170895803202774e-07
127,554.9214270324406,6.060296206994496e-07
128,574.4906888944753,5.950082377768983e-07
129,594.7500592858256,5.840453261927658e-07
130,615.7238748312366,5.731583172180617e-07
131,637.437330385572,5.623623925066423e-07
132,659.9165092942615,5.516706888046686e-07
133,683.1884147367606,5.410944919893807e-07
134,707.2810021516646,5.306434192954238e-07
135,732.2232128264696,5.203255891651585e-07
136,758.0450086628691,5.101477784793108e-07
137,784.7774081611182,5.001155672295653e-07
138,812.4525236928599,4.902334709563557e-07
139,841.1036000651338,4.805050614019787e-07
140,870.765054464,4.70933076001141e-07
141,901.4725177927506,4.6151951681259535e-07
142,933.2628774781754,4.522657396912078e-07
143,966.1743217761763,4.4317253432348484e-07
144,1000.246385651561,4.3424019595793123e-07
145,1035.5199982646723,4.25468589464275e-07
146,1072.0375321396803,4.1685720642076464e-07
147,1109.8428540648813,4.084052159127706e-07
148,1148.9813777903112,4.0011150959923883e-07
149,1189.5001185730118,3.919747416504485e-07
150,1231.4477496638337,3.8399336405295106e-07
151,1274.8746607697833,3.761656577999245e-07
152,1319.8330185898835,3.6848976035399997e-07
153,1366.3768294762424,3.6096368983280106e-07
154,1414.5620043087713,3.535853662420228e-07
155,1464.446425647497,3.4635263009982e-07
156,1516.0900173257382,3.392632587606824e-07
157,1569.554816319515,3.323149806383817e-07
158,1624.905047388441,3.2550548767078455e-07
159,1682.2072001248252,3.1883244612218655e-07
160,1741.530108928,3.12293506011506e-07
161,1802.9450355909432,3.058863092455598e-07
162,1866.5257549617932,2.996084966817385e-07
163,1932.3486435577945,2.934577142054315e-07
164,2000.4927713085644,2.874316179505334e-07
165,2071.0399965239026,2.8152787877164637e-07
166,2144.0750642766393,2.7574418606524647e-07
167,2219.685708132484,2.700782509944055e-07
168,2297.9627555806223,2.645278092241232e-07
169,2379.000237151466,2.5909062320782785e-07
170,2462.8954993303887,2.537644840769421e-07
171,2549.7493215395666,2.4854721321007607e-07
172,2639.6660371743246,2.434366634890035e-07
173,2732.753658952485,2.3843072030596944e-07
174,2829.124008603937,2.3352730234428137e-07
175,2928.8928513086,2.28724362169383e-07
176,3032.1800346514765,2.240198866378476e-07
177,3139.10963263903,2.1941189717772337e-07
178,3249.8100947632765,2.1489844992930712e-07
179,3364.4144002632565,2.1047763577906913e-07
180,3483.060217856,2.0614758030400016e-07
181,3605.890071168281,2.0190644363454444e-07
182,3733.0515099099807,1.9775242024378688e-07
183,3864.6972871019834,1.9368373868577114e-07
184,4000.9855426035233,1.8969866127846277e-07
185,4142.079993061411,1.857954837455796e-07
186,4288.150128553279,1.8197253482677447e-07
187,4439.371416264968,1.782281758580553e-07
188,4595.925511161245,1.745608003256645e-07
189,4758.000474289327,1.709688334025961e-07
190,4925.790998660777,1.6745073147135047e-07
191,5099.498643079133,1.6400498163170463e-07
192,5279.332074362255,1.6063010120213184e-07
193,5465.507317891364,1.573246372112063e-07
194,5658.248017207874,1.5408716589382004e-07
195,5857.7857026172,1.5091629217144143e-07
196,6064.360069302953,1.4781064914255347e-07
197,6278.2192652916665,1.4476889757056533e-07
198,6499.620189540159,1.4178972537293753e-07
199,6728.828800526513,1.3887184711491725e-07
200,6966.120435712,1.360140035041681e-07
201,7211.780142350168,1.33214960894642e-07
202,7466.103019833567,1.304735107920407e-07
203,7729.394574217573,1.2778846936578653e-07
204,8001.971085207047,1.251586769684373e-07
205,8284.159986109216,1.2258299766144427e-07
206,8576.300257120163,1.2006031874595615e-07
207,8878.74283251633,1.1758955030249035e-07
208,9191.85102232249,1.1516962473803669e-07
209,9516.000948578654,1.1279949633899899e-07
210,9851.581997307949,1.1047814083346551e-07
211,10198.997286158266,1.0820455495896718e-07
212,10558.664148710905,1.0597775604007681e-07
213,10931.014635782729,1.0379678157173907e-07
214,11316.496034429352,1.0166068881093273e-07
215,11715.5714052344,9.956855437659573e-08
216,12128.720138592302,9.751947385465737e-08
217,12556.438530569727,9.551256141495274e-08
218,12999.240379080318,9.354694942923106e-08
219,13457.657601039418,9.162178810241753e-08
220,13932.240871424,8.973624510825865e-08
221,14423.560284645913,8.788950523097996e-08
222,14932.206039694345,8.608077001826485e-08
223,15458.789148462356,8.430925743389399e-08
224,16003.942170468516,8.257420152637852e-08
225,16568.31997219122,8.087485209488586e-08
226,17152.60051429475,7.921047437186625e-08
227,17757.485664978238,7.758034869990481e-08
228,18383.702044617767,7.598377022800728e-08
229,19032.00189721173,7.44200486039115e-08
230,19703.163994615898,7.288850767679704e-08
231,20397.994572343745,7.138848520793893e-08
232,21117.32829747623,6.991933258200266e-08
233,21862.029271538242,6.848041452870262e-08
234,22632.992068885917,6.707110885098477e-08
235,23431.1428104688,6.569080615028507e-08
236,24257.440277184603,6.433890956949678e-08
237,25112.877061193878,6.301483453195369e-08
238,25998.480758187845,6.171800848957661e-08
239,26915.315202106052,6.044787067605234e-08
240,27864.481742848,5.9203871863972244e-08
241,28847.12056942788,5.7985474128120237e-08
242,29864.412079252634,5.6792150611918735e-08
243,30917.578296788655,5.562338530140294e-08
244,32007.884340800967,5.4478672800761307e-08
245,33136.6399445185,5.335751811467273e-08
246,34305.20102845344,5.225943643357431e-08
247,35514.97133009253,5.118395292543953e-08
248,36767.40408923553,5.013060252925511e-08
249,38064.003794287404,4.9098929754681966e-08
250,39406.327989231795,4.8088488484833695e-08
251,40795.98914468749,4.7098841783351445e-08
252,42234.656594816406,4.6129561705847443e-08
253,43724.058543212544,4.5180229114838763e-08
254,45265.98413777183,4.4250433497838915e-08
255,46862.2856209376,4.333977279105158e-08
256,48514.88055436921,4.2447853204551654e-08
257,50225.754122251696,4.157428905245452e-08
258,51996.96151623964,4.0718702586021485e-08
259,53830.630404212105,3.988072383065976e-08
260,55728.963485696,3.905999042507872e-08
