,E (eV),I (erg/s/cm**2)
0,6.802851988,0.0002591926254225057
1,7.042754045265218,0.0002571634507484699
2,7.2911162302986705,0.00025546993726902723
3,7.548236888881904,0.0002529054676817137
4,7.814424887910474,0.0002490814417372605
5,8.0899999864351,0.0002446118646842005
6,8.375293219832324,0.0002391707410145527
7,8.670647297390389,0.00023267157329624408
8,8.976417013977027,0.0002250583657812129
9,9.292969676346978,0.00021622851918336067
10,9.620685544252527,0.0002061910744053472
11,9.95995828726861,0.00019219541093950824
12,10.311195457727088,0.0001728956491948332
13,10.674818980263586,0.00015834576989022243
14,11.051265658616357,0.0001419832555431045
15,11.440987700425495,0.00012426851917965724
16,11.844453260345427,0.00010501288809670267
17,12.26214700251832,8.406729308173665e-05
18,12.694570682694135,6.137533090748044e-05
19,13.142243751017716,3.685731284282041e-05
20,13.605703976,8.63114006699835e-06
21,14.085508090503225,8.180639728558496e-06
22,14.582232460651763,7.933960304450668e-06
23,15.096473777791019,7.760114322468018e-06
24,15.62884977584816,7.644739470521984e-06
25,16.17999997284299,7.575737675040791e-06
26,16.750586439610224,7.5430621396470745e-06
27,17.341294594780777,7.538490197083014e-06
28,17.95283402792684,7.555391425911364e-06
29,18.585939352639535,7.588499271524538e-06
30,19.241371088450634,7.633695350672676e-06
31,19.91991657459164,7.68780935390232e-06
32,20.622390915454176,7.748468624433822e-06
33,21.349637960472748,7.814072199547795e-06
34,22.102531317205504,7.883816821108531e-06
35,22.8819754008782,7.957400123243395e-06
36,23.688906520663643,8.03493460739248e-06
37,24.52429400500943,8.219029142182301e-06
38,25.389141365333845,8.205397098407703e-06
39,26.284487502035432,8.301588452012472e-06
40,27.211407952,8.413732162326114e-06
41,28.17101618100645,8.535632023730196e-06
42,29.16446492116747,8.673423336571681e-06
43,30.192947555582037,8.828814809247894e-06
44,31.25769955156026,8.994835186612305e-06
45,32.35999994582204,9.181215003041183e-06
46,33.50117287935651,9.378634587547587e-06
47,34.682589189561554,9.579901511705464e-06
48,35.90566805598974,9.774964797032957e-06
49,37.171878705415125,9.971194314384839e-06
50,38.48274217703732,1.0108924458820442e-05
51,39.83983314904722,1.0182186524895793e-05
52,41.24478183090835,7.296967611307848e-06
53,42.69927592108156,6.891147964605677e-06
54,44.20506263441101,6.359562793421597e-06
55,45.76395080162035,5.756582181191781e-06
56,47.377813041327286,5.074813011565165e-06
57,49.04858801001886,4.294653405695693e-06
58,50.778282730803745,3.413846581831546e-06
59,52.568975004070865,2.4319029428585584e-06
60,54.422815904,1.3594401563537439e-06
61,56.342032362148956,1.0395604689838143e-06
62,58.328929842471,9.434758606196199e-07
63,60.38589511102802,9.167894100842432e-07
64,62.51539910325658,9.124999730480644e-07
65,64.71999989150801,9.149795012126387e-07
66,67.00234575871302,9.19241718008996e-07
67,69.36517837912311,9.237610869103073e-07
68,71.81133611184343,9.28095067921256e-07
69,74.34375741083025,9.321324826757548e-07
70,76.96548435393859,9.358664061964572e-07
71,79.67966629809445,9.393276995624656e-07
72,82.4895636618167,9.425650801590795e-07
73,85.39855184202706,9.456380789964598e-07
74,88.41012526895807,9.486137744758974e-07
75,91.52790160337675,9.515651455145983e-07
76,94.75562608279063,9.545705652518136e-07
77,98.09717602017378,9.577141491576285e-07
78,101.55656546147144,9.610865242826913e-07
79,105.13795000814173,9.6478545430503e-07
80,108.845631808,9.689157455230246e-07
81,112.68406472416184,9.735879840821627e-07
82,116.65785968480594,9.789158770155695e-07
83,120.77179022205604,9.850122286633822e-07
84,125.03079820651315,9.91983817660044e-07
85,129.43999978301602,9.999256030817376e-07
86,134.00469151742604,1.0089147628100794e-06
87,138.73035675879046,1.019005059081658e-06
88,143.62267222395897,1.0302219586226195e-06
89,148.68751482111628,1.0425588362672628e-06
90,153.9309687081493,1.0559744845618098e-06
91,159.3593325967331,1.0703920538435515e-06
92,164.97912732390552,1.0856994630826525e-06
93,170.79710368350987,1.101751251834567e-06
94,176.82025053791614,1.1183717860140803e-06
95,183.0558032072977,1.1353596806630403e-06
96,189.511252165037,1.1524932589465196e-06
97,196.19435204061966,1.1695368252129645e-06
98,203.11313092321498,1.1862474911151056e-06
99,210.27590001628346,1.2023822597602322e-06
100,217.691263616,1.2177050471629664e-06
101,225.3681294488679,1.2319933114003129e-06
102,233.315719369884,1.245043972895553e-06
103,241.54358044438416,1.256678349950329e-06
104,250.06159641357056,1.2667459012654932e-06
105,258.8799995654878,1.275126656598439e-06
106,268.0093830345799,1.281732316795895e-06
107,277.4607135162203,1.2865061004173916e-06
108,287.24534444791794,1.2894214942698242e-06
109,297.3750296435931,1.2904801178567998e-06
110,307.8619374162986,1.2897089361716452e-06
111,318.7186651921057,1.2871570520553409e-06
112,329.95825464781103,1.2828922870641485e-06
113,341.5942073683803,1.2769977256064569e-06
114,353.6405010758323,1.2695683586210953e-06
115,366.1116064132348,1.2607079268652901e-06
116,379.02250433143456,1.250526031257366e-06
117,392.3887040798788,1.2391355516464376e-06
118,406.22626184642996,1.2266503946982085e-06
119,420.5518000325669,1.213183575196424e-06
120,435.382527232,1.1988456236270397e-06
121,450.7362588963753,1.1837433035040774e-06
122,466.631438739768,1.1679786157628822e-06
123,483.0871608887683,1.1516480631018556e-06
124,500.1231928257805,1.1348421446628271e-06
125,517.7599991323361,1.117645050298696e-06
126,536.0187660691598,1.100134523908427e-06
127,554.9214270324406,1.0823818665562502e-06
128,574.4906888944753,1.0644520519789437e-06
129,594.7500592858256,1.0464039296565202e-06
130,615.7238748312366,1.0282904934139402e-06
131,637.437330385572,1.0101591964172733e-06
132,659.9165092942615,9.92052296420324e-07
133,683.1884147367606,9.740072178340909e-07
134,707.2810021516646,9.56056919744179e-07
135,732.2232128264696,9.382302613509729e-07
136,758.0450086628691,9.205523582865723e-07
137,784.7774081611182,9.030449249225808e-07
138,812.4525236928599,8.857265993593709e-07
139,841.1036000651338,8.686132488068388e-07
140,870.765054464,8.517182541803719e-07
141,901.4725177927506,8.350527733084472e-07
142,933.2628774781754,8.186259829457286e-07
143,966.1743217761763,8.024452999538024e-07
144,1000.246385651561,7.865165825977158e-07
145,1035.5199982646723,7.708443128652255e-07
146,1072.0375321396803,7.554317610481143e-07
147,1109.8428540648813,7.402811337897968e-07
148,1148.9813777903112,7.253937068464011e-07
149,1189.5001185730118,7.107699438212355e-07
150,1231.4477496638337,6.964096021267117e-07
151,1274.8746607697833,6.823118272755247e-07
152,1319.8330185898835,6.684752366607953e-07
153,1366.3768294762424,6.548979938025471e-07
154,1414.5620043087713,6.415778740906591e-07
155,1464.446425647497,6.285123228348483e-07
156,1516.0900173257382,6.15698506476953e-07
157,1569.554816319515,6.031333576453748e-07
158,1624.905047388441,5.90813614840541e-07
159,1682.2072001248252,5.787358571640593e-07
160,1741.530108928,5.668965348481384e-07
161,1802.9450355909432,5.552919958815631e-07
162,1866.5257549617932,5.439185093249592e-07
163,1932.3486435577945,5.327722856022392e-07
164,2000.4927713085644,5.218494941594377e-07
165,2071.0399965239026,5.111462787968708e-07
166,2144.0750642766393,5.006587709636557e-07
167,2219.685708132484,4.903831012131485e-07
168,2297.9627555806223,4.80315409100854e-07
169,2379.000237151466,4.704518516724239e-07
170,2462.8954993303887,4.6078861072044607e-07
171,2549.7493215395666,4.513218989771573e-07
172,2639.6660371743246,4.4204796535493353e-07
173,2732.753658952485,4.329630993614341e-07
174,2829.124008603937,4.240636347919863e-07
175,2928.8928513086,4.15345952804659e-07
176,3032.1800346514765,4.068064844163716e-07
177,3139.10963263903,3.984417125470381e-07
178,3249.8100947632765,3.9024817362788046e-07
179,3364.4144002632565,3.8222245885136e-07
180,3483.060217856,3.743612150979977e-07
181,3605.890071168281,3.666611456047241e-07
182,3733.0515099099807,3.591190103839371e-07
183,3864.6972871019834,3.5173162643305217e-07
184,4000.9855426035233,3.4449586778310757e-07
185,4142.079993061411,3.374086653852274e-07
186,4288.150128553279,3.30467006863272e-07
187,4439.371416264968,3.2366793617141704e-07
188,4595.925511161245,3.170085531377842e-07
189,4758.000474289327,3.104860129450794e-07
190,4925.790998660777,3.0409752553266503e-07
191,5099.498643079133,2.978403549484491e-07
192,5279.332074362255,2.9171181865417184e-07
193,5465.507317891364,2.857092867839503e-07
194,5658.248017207874,2.798301813934608e-07
195,5857.7857026172,2.7407197565712846e-07
196,6064.360069302953,2.684321930652505e-07
197,6278.2192652916665,2.6290840660381554e-07
198,6499.620189540159,2.574982379186874e-07
199,6728.828800526513,2.521993564815703e-07
200,6966.120435712,2.4700947874239325e-07
201,7211.780142350168,2.419263672919699e-07
202,7466.103019833567,2.369478300202258e-07
203,7729.394574217573,2.3207171927332766e-07
204,8001.971085207047,2.2729593103142277e-07
205,8284.159986109216,2.2261840407627325e-07
206,8576.300257120163,2.1803711917503601e-07
207,8878.74283251633,2.135500982710714e-07
208,9191.85102232249,2.0915540368805445e-07
209,9516.000948578654,2.0485113733548027e-07
210,9851.581997307949,2.0063543993650184e-07
211,10198.997286158266,1.9650649025663563e-07
212,10558.664148710905,1.9246250435183022e-07
213,10931.014635782729,1.885017348243473e-07
214,11316.496034429352,1.8462247009190547e-07
215,11715.5714052344,1.8082303366888666e-07
216,12128.720138592302,1.7710178346119724e-07
217,12556.438530569727,1.734571110725946e-07
218,12999.240379080318,1.6988744112329735e-07
219,13457.657601039418,1.6639123057952865e-07
220,13932.240871424,1.6296696810118083e-07
221,14423.560284645913,1.5961317339289507e-07
222,14932.206039694345,1.5632839657923374e-07
223,15458.789148462356,1.531112175742095e-07
224,16003.942170468516,1.4996024548547645e-07
225,16568.31997219122,1.4687411800904324e-07
226,17152.60051429475,1.438515008534181e-07
227,17757.485664978238,1.4089108715585368e-07
228,18383.702044617767,1.3799159693265032e-07
229,19032.00189721173,1.3515177652139105e-07
230,19703.163994615898,1.3237039804109428e-07
231,20397.994572343745,1.2964625887084506e-07
232,21117.32829747623,1.2697818112358537e-07
233,21862.029271538242,1.2436501114303525e-07
234,22632.992068885917,1.2180561900727754e-07
235,23431.1428104688,1.1929889803697247e-07
236,24257.440277184603,1.1684376432308828e-07
237,25112.877061193878,1.1443915625680784e-07
238,25998.480758187845,1.1208403406904257e-07
239,26915.315202106052,1.097773793881579e-07
240,27864.481742848,1.0751819479356161e-07
241,28847.12056942788,1.0530550338855936e-07
242,29864.412079252634,1.0313834837690424e-07
243,30917.578296788655,1.010157926514468e-07
244,32007.884340800967,9.893691838854889e-08
245,33136.6399445185,9.69008266497866e-08
246,34305.20102845344,9.490663699416025e-08
247,35514.97133009253,9.295348710042447e-08
248,36767.40408923553,9.104053239099295e-08
249,38064.003794287404,8.916694566886448e-08
250,39406.327989231795,8.733191675941847e-08
251,40795.98914468749,8.553465215987875e-08
252,42234.656594816406,8.377437469690218e-08
253,43724.058543212544,8.205032319140212e-08
254,45265.98413777183,8.036175212686914e-08
255,46862.2856209376,7.87079313302645e-08
256,48514.88055436921,7.708814565410914e-08
257,50225.754122251696,7.550169466834551e-08
258,51996.96151623964,7.394789235722523e-08
259,53830.630404212105,7.242606682276147e-08
260,55728.963485696,7.093555999364034e-08
