,E (eV),I (erg/s/cm**2)
0,6.802851988,0.00041155576006336313
1,7.042754045265218,0.0004120014373087904
2,7.2911162302986705,0.0004127316601271125
3,7.548236888881904,0.0004118939063470202
4,7.814424887910474,0.00040931711992834067
5,8.0899999864351,0.0004048809544949241
6,8.375293219832324,0.0003984714710582766
7,8.670647297390389,0.0003899795105650426
8,8.976417013977027,0.0003792984427299622
9,9.292969676346978,0.0003663006135907615
10,9.620685544252527,0.00035034737925849206
11,9.95995828726861,0.00032788815609558164
12,10.311195457727088,0.00029639078082328705
13,10.674818980263586,0.0002719395692232042
14,11.051265658616357,0.00024457381684951293
15,11.440987700425495,0.00021415777285125964
16,11.844453260345427,0.00018054630290723577
17,12.26214700251832,0.0001436203815035642
18,12.694570682694135,0.00010324955331301376
19,13.142243751017716,5.927077783031489e-05
20,13.605703976,8.162776974100922e-06
21,14.085508090503225,7.61577175258344e-06
22,14.582232460651763,7.3353760697779324e-06
23,15.096473777791019,7.139472191139559e-06
24,15.62884977584816,7.012401502498522e-06
25,16.17999997284299,6.940793552132133e-06
26,16.750586439610224,6.913395717591936e-06
27,17.341294594780777,6.920877894321106e-06
28,17.95283402792684,6.955621921375104e-06
29,18.585939352639535,7.0115044409062614e-06
30,19.241371088450634,7.083681001327088e-06
31,19.91991657459164,7.168378405976098e-06
32,20.622390915454176,7.2627014635530226e-06
33,21.349637960472748,7.364459083188897e-06
34,22.102531317205504,7.472013290925875e-06
35,22.8819754008782,7.584153205494676e-06
36,23.688906520663643,7.699996650242353e-06
37,24.52429400500943,7.9770027890308e-06
38,25.389141365333845,7.9406341694118e-06
39,26.284487502035432,8.065585944357136e-06
40,27.211407952,8.197278306573773e-06
41,28.17101618100645,8.337689372750362e-06
42,29.16446492116747,8.490784619180396e-06
43,30.192947555582037,8.661082814266233e-06
44,31.25769955156026,8.855937052576742e-06
45,32.35999994582204,9.08324411211778e-06
46,33.50117287935651,9.352754374798829e-06
47,34.682589189561554,9.6755443060008e-06
48,35.90566805598974,1.006430367766363e-05
49,37.171878705415125,1.0576121069079395e-05
50,38.48274217703732,1.1082043660662552e-05
51,39.83983314904722,1.1642423312613693e-05
52,41.24478183090835,8.421886358480054e-06
53,42.69927592108156,8.069894433066505e-06
54,44.20506263441101,7.591792216070655e-06
55,45.76395080162035,6.96863200709512e-06
56,47.377813041327286,6.181063684180934e-06
57,49.04858801001886,5.209741754184965e-06
58,50.778282730803745,4.035927129941507e-06
59,52.568975004070865,2.6421438197726473e-06
60,54.422815904,9.44568718931172e-07
61,56.342032362148956,6.64871174203562e-07
62,58.328929842471,5.80341415108833e-07
63,60.38589511102802,5.560742871367958e-07
64,62.51539910325658,5.516055064112347e-07
65,64.71999989150801,5.533243256978966e-07
66,67.00234575871302,5.568447308318966e-07
67,69.36517837912311,5.608113059151755e-07
68,71.81133611184343,5.648192268555005e-07
69,74.34375741083025,5.687484747688145e-07
70,76.96548435393859,5.725619272049084e-07
71,79.67966629809445,5.762483707377296e-07
72,82.4895636618167,5.798083913317752e-07
73,85.39855184202706,5.832519948677838e-07
74,88.41012526895807,5.865988879468868e-07
75,91.52790160337675,5.898789486495432e-07
76,94.75562608279063,5.93132339742313e-07
77,98.09717602017378,5.964092551611852e-07
78,101.55656546147144,5.997693956716937e-07
79,105.13795000814173,6.032812230764099e-07
80,108.845631808,6.070209543270045e-07
81,112.68406472416184,6.110711906246268e-07
82,116.65785968480594,6.155190660625384e-07
83,120.77179022205604,6.204538503954763e-07
84,125.03079820651315,6.259640298811739e-07
85,129.43999978301602,6.321339860774033e-07
86,134.00469151742604,6.390404653212793e-07
87,138.73035675879046,6.46749064389855e-07
88,143.62267222395897,6.553109501791782e-07
89,148.68751482111628,6.647599943659639e-07
90,153.9309687081493,6.751104525613135e-07
91,159.3593325967331,6.86355265953574e-07
92,164.97912732390552,6.98465019800139e-07
93,170.79710368350987,7.113875613431613e-07
94,176.82025053791614,7.250482609649146e-07
95,183.0558032072977,7.393508926885476e-07
96,189.511252165037,7.541791109797352e-07
97,196.19435204061966,7.693985050929508e-07
98,203.11313092321498,7.848592138275624e-07
99,210.27590001628346,8.00399075583532e-07
100,217.691263616,8.158472656893933e-07
101,225.3681294488679,8.310283352133271e-07
102,233.315719369884,8.457665174563122e-07
103,241.54358044438416,8.598901212740818e-07
104,250.06159641357056,8.732357979533321e-07
105,258.8799995654878,8.856524613962087e-07
106,268.0093830345799,8.970046643489019e-07
107,277.4607135162203,9.07175282352447e-07
108,287.24534444791794,9.160674211650738e-07
109,297.3750296435931,9.236055288866998e-07
110,307.8619374162986,9.297357500536424e-07
111,318.7186651921057,9.344255991604357e-07
112,329.95825464781103,9.37663054032517e-07
113,341.5942073683803,9.39455178489945e-07
114,353.6405010758323,9.398263834760911e-07
115,366.1116064132348,9.388164297945146e-07
116,379.02250433143456,9.364782678039581e-07
117,392.3887040798788,9.328758002678173e-07
118,406.22626184642996,9.280816452776033e-07
119,420.5518000325669,9.221749658428983e-07
120,435.382527232,9.152394220347236e-07
121,450.7362588963753,9.073612895977667e-07
122,466.631438739768,8.986277770194821e-07
123,483.0871608887683,8.891255609114414e-07
124,500.1231928257805,8.789395484576212e-07
125,517.7599991323361,8.681518657078927e-07
126,536.0187660691598,8.568410624025594e-07
127,554.9214270324406,8.450815177725358e-07
128,574.4906888944753,8.329430274073912e-07
129,594.7500592858256,8.204905488515874e-07
130,615.7238748312366,8.077840825474491e-07
131,637.437330385572,7.948786650667736e-07
132,659.9165092942615,7.818244527416075e-07
133,683.1884147367606,7.686668756977245e-07
134,707.2810021516646,7.554468444177925e-07
135,732.2232128264696,7.422009934445599e-07
136,758.0450086628691,7.289619491658774e-07
137,784.7774081611182,7.157586108988225e-07
138,812.4525236928599,7.026164366375088e-07
139,841.1036000651338,6.895577266463178e-07
140,870.765054464,6.766018997601185e-07
141,901.4725177927506,6.637657585928836e-07
142,933.2628774781754,6.510637410235152e-07
143,966.1743217761763,6.385081562859325e-07
144,1000.246385651561,6.261094047213746e-07
145,1035.5199982646723,6.138761808361666e-07
146,1072.0375321396803,6.018156597415768e-07
147,1109.8428540648813,5.899336674706593e-07
148,1148.9813777903112,5.782348357196412e-07
149,1189.5001185730118,5.667227419639556e-07
150,1231.4477496638337,5.554000357985399e-07
151,1274.8746607697833,5.44268552448419e-07
152,1319.8330185898835,5.333294145621594e-07
153,1366.3768294762424,5.225831231133805e-07
154,1414.5620043087713,5.120296384985764e-07
155,1464.446425647497,5.01668452634681e-07
156,1516.0900173257382,4.914986530278464e-07
157,1569.554816319515,4.815189794349151e-07
158,1624.905047388441,4.7172787409923686e-07
159,1682.2072001248252,4.6212352600453543e-07
160,1741.530108928,4.527039099669643e-07
161,1802.9450355909432,4.4346682096981074e-07
162,1866.5257549617932,4.344099043837991e-07
163,1932.3486435577945,4.255306824611638e-07
164,2000.4927713085644,4.168265775474677e-07
165,2071.0399965239026,4.0829493237746584e-07
166,2144.0750642766393,3.9993302780846084e-07
167,2219.685708132484,3.917380982567826e-07
168,2297.9627555806223,3.8370734513934035e-07
169,2379.000237151466,3.758379485418322e-07
170,2462.8954993303887,3.6812707731840407e-07
171,2549.7493215395666,3.6057189782410573e-07
172,2639.6660371743246,3.5316958143683765e-07
173,2732.753658952485,3.459173110175185e-07
174,2829.124008603937,3.388122864332165e-07
175,2928.8928513086,3.3185172928039106e-07
176,3032.1800346514765,3.2503288687275975e-07
177,3139.10963263903,3.183530356109922e-07
178,3249.8100947632765,3.118094838118828e-07
179,3364.4144002632565,3.0539957404410745e-07
180,3483.060217856,2.9912068505358335e-07
181,3605.890071168281,2.9297023333072503e-07
182,3733.0515099099807,2.8694567435458164e-07
183,3864.6972871019834,2.8104450355182996e-07
184,4000.9855426035233,2.752642570370522e-07
185,4142.079993061411,2.696025121312516e-07
186,4288.150128553279,2.640568876970532e-07
187,4439.371416264968,2.586250443378306e-07
188,4595.925511161245,2.5330468444119174e-07
189,4758.000474289327,2.480935521199895e-07
190,4925.790998660777,2.429894330585988e-07
191,5099.498643079133,2.3799015425805698e-07
192,5279.332074362255,2.3309358373046221e-07
193,5465.507317891364,2.2829763011677011e-07
194,5658.248017207874,2.2360024226271396e-07
195,5857.7857026172,2.1899940875002603e-07
196,6064.360069302953,2.144931573880399e-07
197,6278.2192652916665,2.1007955468679886e-07
198,6499.620189540159,2.0575670529341748e-07
199,6728.828800526513,2.0152275141695355e-07
200,6966.120435712,1.9737587224258753e-07
201,7211.780142350168,1.9331428332711018e-07
202,7466.103019833567,1.8933623598992746e-07
203,7729.394574217573,1.8544001669979366e-07
204,8001.971085207047,1.8162394645779296e-07
205,8284.159986109216,1.778863801808426e-07
206,8576.300257120163,1.742257060823074e-07
207,8878.74283251633,1.706403450598846e-07
208,9191.85102232249,1.6712875008509492e-07
209,9516.000948578654,1.6368940559501978e-07
210,9851.581997307949,1.6032082689506445e-07
211,10198.997286158266,1.5702155956281308e-07
212,10558.664148710905,1.537901788612685e-07
213,10931.014635782729,1.506252891606658e-07
214,11316.496034429352,1.475255233650636e-07
215,11715.5714052344,1.4448954235029807e-07
216,12128.720138592302,1.4151603440801508e-07
217,12556.438530569727,1.3860371470209847e-07
218,12999.240379080318,1.3575132472857837e-07
219,13457.657601039418,1.3295763178915458e-07
220,13932.240871424,1.302214284725738e-07
221,14423.560284645913,1.2754153214244989e-07
222,14932.206039694345,1.2491678444164882e-07
223,15458.789148462356,1.2234605079297191e-07
224,16003.942170468516,1.1982821992481885e-07
225,16568.31997219122,1.1736220339056553e-07
226,17152.60051429475,1.149469351124129e-07
227,17757.485664978238,1.1258137091421263e-07
228,18383.702044617767,1.1026448808798283e-07
229,19032.00189721173,1.079952849445626e-07
230,19703.163994615898,1.0577278038903657e-07
231,20397.994572343745,1.0359601350076124e-07
232,21117.32829747623,1.0146404311769562e-07
233,21862.029271538242,9.937594743292617e-08
234,22632.992068885917,9.733082359998779e-08
235,23431.1428104688,9.532778733833758e-08
236,24257.440277184603,9.336597256033437e-08
237,25112.877061193878,9.14445309928025e-08
238,25998.480758187845,8.956263181281957e-08
239,26915.315202106052,8.771946129039286e-08
240,27864.481742848,8.591422243624146e-08
241,28847.12056942788,8.414613465706944e-08
242,29864.412079252634,8.241443342193726e-08
243,30917.578296788655,8.0718369929764e-08
244,32007.884340800967,7.905721078613932e-08
245,33136.6399445185,7.743023768765201e-08
246,34305.20102845344,7.58367471100906e-08
247,35514.97133009253,7.42760500068476e-08
248,36767.40408923553,7.274747150902937e-08
249,38064.003794287404,7.125035063566582e-08
250,39406.327989231795,6.978404000660438e-08
251,40795.98914468749,6.834790556395059e-08
252,42234.656594816406,6.694132629677946e-08
253,43724.058543212544,6.556369397472384e-08
254,45265.98413777183,6.42144128827786e-08
255,46862.2856209376,6.28928995654829e-08
256,48514.88055436921,6.159858257403067e-08
257,50225.754122251696,6.03309022194504e-08
258,51996.96151623964,5.908931033055493e-08
259,53830.630404212105,5.787327001691874e-08
260,55728.963485696,5.66822554367223e-08
