,E (eV),I (erg/s/cm**2)
0,6.802851988,0.0006076338625820452
1,7.042754045265218,0.000617836730521669
2,7.2911162302986705,0.0006272637233722518
3,7.548236888881904,0.0006346582044152998
4,7.814424887910474,0.0006396411156073232
5,8.0899999864351,0.0006418146550964788
6,8.375293219832324,0.0006407714242676098
7,8.670647297390389,0.0006360572238601423
8,8.976417013977027,0.0006272010232329651
9,9.292969676346978,0.000612214310193587
10,9.620685544252527,0.0005937427695264019
11,9.95995828726861,0.000563749974454041
12,10.311195457727088,0.0005176377820603935
13,10.674818980263586,0.00047985972839825915
14,11.051265658616357,0.0004355205509621863
15,11.440987700425495,0.00038429203456852713
16,11.844453260345427,0.0003258610358226292
17,12.26214700251832,0.00025994046612597
18,12.694570682694135,0.0001843438445652198
19,13.142243751017716,0.00010246728824720363
20,13.605703976,6.056308245624189e-06
21,14.085508090503225,5.672951808342111e-06
22,14.582232460651763,5.420244468215756e-06
23,15.096473777791019,5.2473973115509865e-06
24,15.62884977584816,5.140736177249057e-06
25,16.17999997284299,5.088405940830913e-06
26,16.750586439610224,5.080277371246906e-06
27,17.341294594780777,5.107825587672977e-06
28,17.95283402792684,5.1639879483665865e-06
29,18.585939352639535,5.243008365793345e-06
30,19.241371088450634,5.340274345600133e-06
31,19.91991657459164,5.452152634344328e-06
32,20.622390915454176,5.575829152544839e-06
33,21.349637960472748,5.709158655299225e-06
34,22.102531317205504,5.850529007686323e-06
35,22.8819754008782,5.998743870077723e-06
36,23.688906520663643,6.1529259114934395e-06
37,24.52429400500943,6.350328947911515e-06
38,25.389141365333845,6.476838451431308e-06
39,26.284487502035432,6.645811952923205e-06
40,27.211407952,6.81916451221997e-06
41,28.17101618100645,6.996782833161054e-06
42,29.16446492116747,7.178626300204291e-06
43,30.192947555582037,7.3647545652445355e-06
44,31.25769955156026,7.555489502287289e-06
45,32.35999994582204,7.752226050470395e-06
46,33.50117287935651,7.961255344424235e-06
47,34.682589189561554,8.204399146602202e-06
48,35.90566805598974,8.52117529043803e-06
49,37.171878705415125,8.977676541822107e-06
50,38.48274217703732,9.543383070949798e-06
51,39.83983314904722,1.029419688173188e-05
52,41.24478183090835,8.730266779012499e-06
53,42.69927592108156,8.632400248468694e-06
54,44.20506263441101,8.377953352323613e-06
55,45.76395080162035,7.913893155453788e-06
56,47.377813041327286,7.185326093626028e-06
57,49.04858801001886,6.13307165028186e-06
58,50.778282730803745,4.499478487650649e-06
59,52.568975004070865,2.5723766399716237e-06
60,54.422815904,1.6643953828134744e-07
61,56.342032362148956,1.1170573193699179e-07
62,58.328929842471,9.43822603902054e-08
63,60.38589511102802,8.978114669143099e-08
64,62.51539910325658,8.947787116167756e-08
65,64.71999989150801,9.055925128541127e-08
66,67.00234575871302,9.20619365519567e-08
67,69.36517837912311,9.368240508844243e-08
68,71.81133611184343,9.533046708616874e-08
69,74.34375741083025,9.698185322478662e-08
70,76.96548435393859,9.863194140354333e-08
71,79.67966629809445,1.0028206001059805e-07
72,82.4895636618167,1.0193576524894846e-07
73,85.39855184202706,1.0359800412887158e-07
74,88.41012526895807,1.0527505007032003e-07
75,91.52790160337675,1.0697461557410356e-07
76,94.75562608279063,1.0870598700377513e-07
77,98.09717602017378,1.1048014595153584e-07
78,101.55656546147144,1.1230986714331582e-07
79,105.13795000814173,1.1420978100339447e-07
80,108.845631808,1.1619638103763751e-07
81,112.68406472416184,1.1828795100453175e-07
82,116.65785968480594,1.2050438847093188e-07
83,120.77179022205604,1.2286691054004206e-07
84,125.03079820651315,1.253976418838626e-07
85,129.43999978301602,1.2811910058464229e-07
86,134.00469151742604,1.3105360946574444e-07
87,138.73035675879046,1.3422266675859286e-07
88,143.62267222395897,1.376463095760059e-07
89,148.68751482111628,1.4134249810550497e-07
90,153.9309687081493,1.4532654011515584e-07
91,159.3593325967331,1.4961056683612347e-07
92,164.97912732390552,1.542030643060229e-07
93,170.79710368350987,1.591084596501948e-07
94,176.82025053791614,1.643267599259417e-07
95,183.0558032072977,1.6985324168320847e-07
96,189.511252165037,1.756781921333095e-07
97,196.19435204061966,1.8178670708596538e-07
98,203.11313092321498,1.8815855608066225e-07
99,210.27590001628346,1.9476813045545127e-07
100,217.691263616,2.0158449406196507e-07
101,225.3681294488679,2.085715576998267e-07
102,233.315719369884,2.1568839558734963e-07
103,241.54358044438416,2.2288971473818138e-07
104,250.06159641357056,2.3012647681671897e-07
105,258.8799995654878,2.3734665905542067e-07
106,268.0093830345799,2.444961292805005e-07
107,277.4607135162203,2.515196025047391e-07
108,287.24534444791794,2.58361644176562e-07
109,297.3750296435931,2.6496768710685347e-07
110,307.8619374162986,2.712850334090997e-07
111,318.7186651921057,2.772638170767419e-07
112,329.95825464781103,2.828579055690565e-07
113,341.5942073683803,2.880257195169739e-07
114,353.6405010758323,2.927309492916892e-07
115,366.1116064132348,2.969431467787172e-07
116,379.02250433143456,3.006381719030187e-07
117,392.3887040798788,3.0379847681813736e-07
118,406.22626184642996,3.0641321657339156e-07
119,420.5518000325669,3.0847818291085216e-07
120,435.382527232,3.09995566824017e-07
121,450.7362588963753,3.109735643441828e-07
122,466.631438739768,3.1142584790728897e-07
123,483.0871608887683,3.1137093154565757e-07
124,500.1231928257805,3.1083146174673005e-07
125,517.7599991323361,3.098334668058825e-07
126,536.0187660691598,3.0840559626110363e-07
127,554.9214270324406,3.0657837870780294e-07
128,574.4906888944753,3.043835217301454e-07
129,594.7500592858256,3.018532722406269e-07
130,615.7238748312366,2.990198499175099e-07
131,637.437330385572,2.959149610522394e-07
132,659.9165092942615,2.925693953295133e-07
133,683.1884147367606,2.890127041002385e-07
134,707.2810021516646,2.8527295557154044e-07
135,732.2232128264696,2.8137656029610674e-07
136,758.0450086628691,2.7734815883121627e-07
137,784.7774081611182,2.732105629097368e-07
138,812.4525236928599,2.689847413463437e-07
139,841.1036000651338,2.646898422254261e-07
140,870.765054464,2.603432435762524e-07
141,901.4725177927506,2.5596062554249524e-07
142,933.2628774781754,2.5155605796054124e-07
143,966.1743217761763,2.471420981678731e-07
144,1000.246385651561,2.4272989476475835e-07
145,1035.5199982646723,2.38329293854693e-07
146,1072.0375321396803,2.3394894504193952e-07
147,1109.8428540648813,2.295964050987313e-07
148,1148.9813777903112,2.2527823776008975e-07
149,1189.5001185730118,2.2100010856968149e-07
150,1231.4477496638337,2.1676687406631192e-07
151,1274.8746607697833,2.1258266490416377e-07
152,1319.8330185898835,2.0845096273507524e-07
153,1366.3768294762424,2.0437467085300336e-07
154,1414.5620043087713,2.0035617874900049e-07
155,1464.446425647497,1.9639742080344312e-07
156,1516.0900173257382,1.9249992943301072e-07
157,1569.554816319515,1.8866488299936536e-07
158,1624.905047388441,1.8489314889711133e-07
159,1682.2072001248252,1.8118532214017137e-07
160,1741.530108928,1.7754175986441715e-07
161,1802.9450355909432,1.739626120646378e-07
162,1866.5257549617932,1.7044784894740444e-07
163,1932.3486435577945,1.669972851995796e-07
164,2000.4927713085644,1.6361060149301969e-07
165,2071.0399965239026,1.6028736349358098e-07
166,2144.0750642766393,1.5702703865395136e-07
167,2219.685708132484,1.5382901099769425e-07
168,2297.9627555806223,1.5069259414361252e-07
169,2379.000237151466,1.47617042745293e-07
170,2462.8954993303887,1.4460156252074372e-07
171,2549.7493215395666,1.4164531905197348e-07
172,2639.6660371743246,1.3874744546783564e-07
173,2732.753658952485,1.3590704916215918e-07
174,2829.124008603937,1.3312321764572285e-07
175,2928.8928513086,1.3039502364699047e-07
176,3032.1800346514765,1.2772152952865676e-07
177,3139.10963263903,1.251017911323416e-07
178,3249.8100947632765,1.225348610931633e-07
179,3364.4144002632565,1.2001979170117728e-07
180,3483.060217856,1.1755563736520509e-07
181,3605.890071168281,1.1514145672363229e-07
182,3733.0515099099807,1.1277631445056902e-07
183,3864.6972871019834,1.104592827866464e-07
184,4000.9855426035233,1.081894428400346e-07
185,4142.079993061411,1.0596588567863499e-07
186,4288.150128553279,1.0378771324134042e-07
187,4439.371416264968,1.0165403909610836e-07
188,4595.925511161245,9.956398905545732e-08
189,4758.000474289327,9.751670167732434e-08
190,4925.790998660777,9.551132866117106e-08
191,5099.498643079133,9.354703515117291e-08
192,5279.332074362255,9.162299996683603e-08
193,5465.507317891364,8.973841575986871e-08
194,5658.248017207874,8.78924891172874e-08
195,5857.7857026172,8.608444061207767e-08
196,6064.360069302953,8.43135048103707e-08
197,6278.2192652916665,8.257893024226116e-08
198,6499.620189540159,8.087997934047667e-08
199,6728.828800526513,7.921592835164891e-08
200,6966.120435712,7.758606722438559e-08
201,7211.780142350168,7.598969947949961e-08
202,7466.103019833567,7.442614206120048e-08
203,7729.394574217573,7.289472517729658e-08
204,8001.971085207047,7.13947921262159e-08
205,8284.159986109216,6.992569911634209e-08
206,8576.300257120163,6.848681507684609e-08
207,8878.74283251633,6.707752146220191e-08
208,9191.85102232249,6.569721205548652e-08
209,9516.000948578654,6.434529276362319e-08
210,9851.581997307949,6.302118141336985e-08
211,10198.997286158266,6.172430754566321e-08
212,10558.664148710905,6.045411220726963e-08
213,10931.014635782729,5.921004774564056e-08
214,11316.496034429352,5.7991577600950297e-08
215,11715.5714052344,5.679817610022424e-08
216,12128.720138592302,5.562932825432323e-08
217,12556.438530569727,5.44845295551141e-08
218,12999.240379080318,5.336328577354214e-08
219,13457.657601039418,5.2265112763243735e-08
220,13932.240871424,5.1189536262266985e-08
221,14423.560284645913,5.013609170214884e-08
222,14932.206039694345,4.9104324014525296e-08
223,15458.789148462356,4.80937874452668e-08
224,16003.942170468516,4.7104045368740203e-08
225,16568.31997219122,4.613467010509413e-08
226,17152.60051429475,4.5185242743132195e-08
227,17757.485664978238,4.4255352960811926e-08
228,18383.702044617767,4.334459885682473e-08
229,19032.00189721173,4.24525867766809e-08
230,19703.163994615898,4.157893114751457e-08
231,20397.994572343745,4.072325431511503e-08
232,21117.32829747623,3.9885186381674604e-08
233,21862.029271538242,3.9064365048799876e-08
234,22632.992068885917,3.8260435463275674e-08
235,23431.1428104688,3.747305006391396e-08
236,24257.440277184603,3.670186843445955e-08
237,25112.877061193878,3.5946557156382656e-08
238,25998.480758187845,3.5206789666293316e-08
239,26915.315202106052,3.448224611584883e-08
240,27864.481742848,3.377261323400708e-08
241,28847.12056942788,3.307758419258987e-08
242,29864.412079252634,3.239685847391961e-08
243,30917.578296788655,3.1730141742005284e-08
244,32007.884340800967,3.1077145714875006e-08
245,33136.6399445185,3.0437588041190026e-08
246,34305.20102845344,2.9811192177770586e-08
247,35514.97133009253,2.9197687271227934e-08
248,36767.40408923553,2.8596808040282273e-08
249,38064.003794287404,2.8008294661938645e-08
250,39406.327989231795,2.743189265888123e-08
251,40795.98914468749,2.6867352789576447e-08
252,42234.656594816406,2.6314430941138163e-08
253,43724.058543212544,2.5772888023837022e-08
254,45265.98413777183,2.524248986703939e-08
255,46862.2856209376,2.4723007119091497e-08
256,48514.88055436921,2.421421514777339e-08
257,50225.754122251696,2.3715893943115912e-08
258,51996.96151623964,2.322782802264852e-08
259,53830.630404212105,2.274980633799132e-08
260,55728.963485696,2.228162218362182e-08
