,E (eV),I (erg/s/cm**2)
0,6.802851988,0.0005451823103316258
1,7.042754045265218,0.0005518594822527944
2,7.2911162302986705,0.0005577959498979366
3,7.548236888881904,0.0005617168698345244
4,7.814424887910474,0.0005633298139619045
5,8.0899999864351,0.0005622911800355101
6,8.375293219832324,0.0005571331752953507
7,8.670647297390389,0.0005497899961016989
8,8.976417013977027,0.0005390155144508024
9,9.292969676346978,0.0005244573850818035
10,9.620685544252527,0.0005059147336941162
11,9.95995828726861,0.00047756826775156527
12,10.311195457727088,0.0004357790116108871
13,10.674818980263586,0.0004019484708585177
14,11.051265658616357,0.0003630816594141591
15,11.440987700425495,0.00031759040294660374
16,11.844453260345427,0.00026776176401548053
17,12.26214700251832,0.00021247261402884235
18,12.694570682694135,0.00015127956241254583
19,13.142243751017716,8.392769112000966e-05
20,13.605703976,6.777602715051522e-06
21,14.085508090503225,6.278465412747235e-06
22,14.582232460651763,6.014939456606475e-06
23,15.096473777791019,5.833728889519717e-06
24,15.62884977584816,5.720372019488062e-06
25,16.17999997284299,5.6623919261865174e-06
26,16.750586439610224,5.64917969288569e-06
27,17.341294594780777,5.671849578133064e-06
28,17.95283402792684,5.723074605561498e-06
29,18.585939352639535,5.79691017138771e-06
30,19.241371088450634,5.888612557581066e-06
31,19.91991657459164,5.994458763009252e-06
32,20.622390915454176,6.111573693412604e-06
33,21.349637960472748,6.237770249894234e-06
34,22.102531317205504,6.371406968263987e-06
35,22.8819754008782,6.511266451455261e-06
36,23.688906520663643,6.656455872014184e-06
37,24.52429400500943,6.949028394968375e-06
38,25.389141365333845,6.960425613931733e-06
39,26.284487502035432,7.118427211172771e-06
40,27.211407952,7.280137132747613e-06
41,28.17101618100645,7.445452707709633e-06
42,29.16446492116747,7.614505933731416e-06
43,30.192947555582037,7.78827106719868e-06
44,31.25769955156026,7.971806640143722e-06
45,32.35999994582204,8.177672610068665e-06
46,33.50117287935651,8.420576845886291e-06
47,34.682589189561554,8.713755206435505e-06
48,35.90566805598974,9.073139779956818e-06
49,37.171878705415125,9.579261617089055e-06
50,38.48274217703732,1.0171476605765814e-05
51,39.83983314904722,1.0915317252703222e-05
52,41.24478183090835,8.600302459441887e-06
53,42.69927592108156,8.37544732794274e-06
54,44.20506263441101,8.006774696538186e-06
55,45.76395080162035,7.351734436448448e-06
56,47.377813041327286,6.5410325661870955e-06
57,49.04858801001886,5.4586516171844085e-06
58,50.778282730803745,4.060937664811537e-06
59,52.568975004070865,2.3059006922876433e-06
60,54.422815904,3.7921189426254443e-07
61,56.342032362148956,2.5222993509529164e-07
62,58.328929842471,2.1368702638227424e-07
63,60.38589511102802,2.0284282364259035e-07
64,62.51539910325658,2.0123958059317204e-07
65,64.71999989150801,2.0256723419863298e-07
66,67.00234575871302,2.0475927009271494e-07
67,69.36517837912311,2.0716846371714881e-07
68,71.81133611184343,2.0960229159271935e-07
69,74.34375741083025,2.1200848740325142e-07
70,76.96548435393859,2.143772868545153e-07
71,79.67966629809445,2.1671239318364395e-07
72,82.4895636618167,2.19022656834149e-07
73,85.39855184202706,2.213197223679731e-07
74,88.41012526895807,2.2361738060444714e-07
75,91.52790160337675,2.2593147284480552e-07
76,94.75562608279063,2.2828004211574596e-07
77,98.09717602017378,2.3068362345211907e-07
78,101.55656546147144,2.331655911865641e-07
79,105.13795000814173,2.3575247212187777e-07
80,108.845631808,2.3847412715572286e-07
81,112.68406472416184,2.4136371166851615e-07
82,116.65785968480594,2.44457349161962e-07
83,120.77179022205604,2.4779349034080813e-07
84,125.03079820651315,2.5141197345846453e-07
85,129.43999978301602,2.553528416134509e-07
86,134.00469151742604,2.5965500023362614e-07
87,138.73035675879046,2.643548086540345e-07
88,143.62267222395897,2.694846941425042e-07
89,148.68751482111628,2.750718595406862e-07
90,153.9309687081493,2.811371332373367e-07
91,159.3593325967331,2.876939883090057e-07
92,164.97912732390552,2.9474774013117546e-07
93,170.79710368350987,3.022949202007264e-07
94,176.82025053791614,3.1032281867840255e-07
95,183.0558032072977,3.1880918862399456e-07
96,189.511252165037,3.277221102494339e-07
97,196.19435204061966,3.3702002228102087e-07
98,203.11313092321498,3.466519377923554e-07
99,210.27590001628346,3.5655787087890967e-07
100,217.691263616,3.6666950446370124e-07
101,225.3681294488679,3.769111254568295e-07
102,233.315719369884,3.872008390390576e-07
103,241.54358044438416,3.974520501681297e-07
104,250.06159641357056,4.075751715758909e-07
105,258.8799995654878,4.1747949050020547e-07
106,268.0093830345799,4.2707510786147335e-07
107,277.4607135162203,4.362748577022086e-07
108,287.24534444791794,4.4499612177066645e-07
109,297.3750296435931,4.531624700669558e-07
110,307.8619374162986,4.6070507798094736e-07
111,318.7186651921057,4.6756388905167585e-07
112,329.95825464781103,4.7368850678453354e-07
113,341.5942073683803,4.790388087466558e-07
114,353.6405010758323,4.835852828955798e-07
115,366.1116064132348,4.873090913618958e-07
116,379.02250433143456,4.902018727732068e-07
117,392.3887040798788,4.922653008874834e-07
118,406.22626184642996,4.935104250366149e-07
119,420.5518000325669,4.939568253585924e-07
120,435.382527232,4.936316224207276e-07
121,450.7362588963753,4.925683850017312e-07
122,466.631438739768,4.908059815560088e-07
123,483.0871608887683,4.883874194764391e-07
124,500.1231928257805,4.853587124400369e-07
125,517.7599991323361,4.817678100665906e-07
126,536.0187660691598,4.776636168861521e-07
127,554.9214270324406,4.730951197725074e-07
128,574.4906888944753,4.681106352751773e-07
129,594.7500592858256,4.6275718139093433e-07
130,615.7238748312366,4.5707997228766945e-07
131,637.437330385572,4.511220298750629e-07
132,659.9165092942615,4.449239027142717e-07
133,683.1884147367606,4.3852348053351827e-07
134,707.2810021516646,4.3195589152456595e-07
135,732.2232128264696,4.2525346928999736e-07
136,758.0450086628691,4.184457767288643e-07
137,784.7774081611182,4.115596749826681e-07
138,812.4525236928599,4.046194267443045e-07
139,841.1036000651338,3.976468245274565e-07
140,870.765054464,3.906613358692024e-07
141,901.4725177927506,3.836802587642618e-07
142,933.2628774781754,3.767188818887525e-07
143,966.1743217761763,3.6979064526885756e-07
144,1000.246385651561,3.629072980637393e-07
145,1035.5199982646723,3.560790510107194e-07
146,1072.0375321396803,3.493147216877744e-07
147,1109.8428540648813,3.4262187149201083e-07
148,1148.9813777903112,3.360069335577826e-07
149,1189.5001185730118,3.2947533130741643e-07
150,1231.4477496638337,3.2303158758544666e-07
151,1274.8746607697833,3.16679424525651e-07
152,1319.8330185898835,3.1042185448684706e-07
153,1366.3768294762424,3.04261262483482e-07
154,1414.5620043087713,2.9819948061271815e-07
155,1464.446425647497,2.9223785502362113e-07
156,1516.0900173257382,2.8637730599602977e-07
157,1569.554816319515,2.806183816465067e-07
158,1624.905047388441,2.749613058898865e-07
159,1682.2072001248252,2.6940602108544645e-07
160,1741.530108928,2.639522259563886e-07
161,1802.9450355909432,2.585994091703759e-07
162,1866.5257549617932,2.533468790798163e-07
163,1932.3486435577945,2.4819378997795193e-07
164,2000.4927713085644,2.4313916526180537e-07
165,2071.0399965239026,2.3818191782027327e-07
166,2144.0750642766393,2.3332086796700433e-07
167,2219.685708132484,2.2855475916772313e-07
168,2297.9627555806223,2.2388227184100342e-07
169,2379.000237151466,2.1930203542078885e-07
170,2462.8954993303887,2.1481263890430663e-07
171,2549.7493215395666,2.10412640049369e-07
172,2639.6660371743246,2.0610057337782528e-07
173,2732.753658952485,2.01874957139447e-07
174,2829.124008603937,1.977342993382998e-07
175,2928.8928513086,1.9367710296436802e-07
176,3032.1800346514765,1.8970187048655462e-07
177,3139.10963263903,1.8580710774341475e-07
178,3249.8100947632765,1.8199132725868571e-07
179,3364.4144002632565,1.7825305109174082e-07
180,3483.060217856,1.7459081324967145e-07
181,3605.890071168281,1.710031617407686e-07
182,3733.0515099099807,1.674886602969259e-07
183,3864.6972871019834,1.6404588981259744e-07
184,4000.9855426035233,1.606734495373757e-07
185,4142.079993061411,1.5736995805668751e-07
186,4288.150128553279,1.5413405407339284e-07
187,4439.371416264968,1.5096439704521725e-07
188,4595.925511161245,1.478596676532983e-07
189,4758.000474289327,1.44818568177614e-07
190,4925.790998660777,1.4183982274137524e-07
191,5099.498643079133,1.3892217747151305e-07
192,5279.332074362255,1.3606440058782563e-07
193,5465.507317891364,1.3326528240932741e-07
194,5658.248017207874,1.3052363531271192e-07
195,5857.7857026172,1.2783829363478464e-07
196,6064.360069302953,1.2520811353334867e-07
197,6278.2192652916665,1.2263197281268808e-07
198,6499.620189540159,1.2010877071786492e-07
199,6728.828800526513,1.1763742770186259e-07
200,6966.120435712,1.1521688517215791e-07
201,7211.780142350168,1.1284610522081486e-07
202,7466.103019833567,1.1052407033635261e-07
203,7729.394574217573,1.0824978310769697e-07
204,8001.971085207047,1.0602226591640535e-07
205,8284.159986109216,1.038405606237656e-07
206,8576.300257120163,1.0170372824998355e-07
207,8878.74283251633,9.961084865032983e-08
208,9191.85102232249,9.756102019297007e-08
209,9516.000948578654,9.555335942772258e-08
210,9851.581997307949,9.358700076358542e-08
211,10198.997286158266,9.166109613883736e-08
212,10558.664148710905,8.97748146991007e-08
213,10931.014635782729,8.792734247272312e-08
214,11316.496034429352,8.611788205250093e-08
215,11715.5714052344,8.434565227790855e-08
216,12128.720138592302,8.26098879206879e-08
217,12556.438530569727,8.09098393782365e-08
218,12999.240379080318,7.924477236404585e-08
219,13457.657601039418,7.76139676100848e-08
220,13932.240871424,7.601672056743891e-08
221,14423.560284645913,7.445234111380644e-08
222,14932.206039694345,7.292015326944992e-08
223,15458.789148462356,7.141949490830456e-08
224,16003.942170468516,6.994971748531357e-08
225,16568.31997219122,6.85101857590527e-08
226,17152.60051429475,6.710027752695782e-08
227,17757.485664978238,6.571938335796938e-08
228,18383.702044617767,6.436690633763662e-08
229,19032.00189721173,6.304226180930272e-08
230,19703.163994615898,6.174487712937489e-08
231,20397.994572343745,6.047419141990337e-08
232,21117.32829747623,5.922965533099607e-08
233,21862.029271538242,5.801073080325264e-08
234,22632.992068885917,5.681689083962193e-08
235,23431.1428104688,5.564761927681135e-08
236,24257.440277184603,5.450241056575245e-08
237,25112.877061193878,5.338076955331805e-08
238,25998.480758187845,5.2282211269338996e-08
239,26915.315202106052,5.120626071849969e-08
240,27864.481742848,5.015245267545156e-08
241,28847.12056942788,4.9120331484462706e-08
242,29864.412079252634,4.810945086296056e-08
243,30917.578296788655,4.711937370955395e-08
244,32007.884340800967,4.614967191522634e-08
245,33136.6399445185,4.519992617872697e-08
246,34305.20102845344,4.426972582508143e-08
247,35514.97133009253,4.3358668629604643e-08
248,36767.40408923553,4.2466360643345214e-08
249,38064.003794287404,4.159241602315287e-08
250,39406.327989231795,4.073645686513127e-08
251,40795.98914468749,3.9898113041463895e-08
252,42234.656594816406,3.9077022040134334e-08
253,43724.058543212544,3.827282880925111e-08
254,45265.98413777183,3.748518560248153e-08
255,46862.2856209376,3.671375182960986e-08
256,48514.88055436921,3.595819390909912e-08
257,50225.754122251696,3.521818512402941e-08
258,51996.96151623964,3.449340548047187e-08
259,53830.630404212105,3.378354157004383e-08
260,55728.963485696,3.3088286433230866e-08
