,E (eV),I (erg/s/cm**2)
0,6.802851988,0.000616953612395988
1,7.042754045265218,0.0006278929786146781
2,7.2911162302986705,0.0006378294245959245
3,7.548236888881904,0.0006457473810886716
4,7.814424887910474,0.0006512545395433905
5,8.0899999864351,0.0006539356093825898
6,8.375293219832324,0.000653359136613245
7,8.670647297390389,0.0006490772357367029
8,8.976417013977027,0.0006405643166864982
9,9.292969676346978,0.0006252876252253698
10,9.620685544252527,0.0006067753135149522
11,9.95995828726861,0.0005771878271882802
12,10.311195457727088,0.0005302463166240613
13,10.674818980263586,0.0004917833369086186
14,11.051265658616357,0.00044645283859585987
15,11.440987700425495,0.00039389291093692774
16,11.844453260345427,0.00033375712040860535
17,12.26214700251832,0.0002657300269893824
18,12.694570682694135,0.00018705678585964093
19,13.142243751017716,0.00010196626412875362
20,13.605703976,6.031331625700017e-06
21,14.085508090503225,5.564934387006596e-06
22,14.582232460651763,5.314227886731074e-06
23,15.096473777791019,5.142848445408348e-06
24,15.62884977584816,5.037279227783964e-06
25,16.17999997284299,4.98579064796969e-06
26,16.750586439610224,4.978351444074863e-06
27,17.341294594780777,5.006511346369178e-06
28,17.95283402792684,5.06326306739268e-06
29,18.585939352639535,5.142890508431472e-06
30,19.241371088450634,5.240809372800296e-06
31,19.91991657459164,5.353405959168401e-06
32,20.622390915454176,5.477879712254125e-06
33,21.349637960472748,5.612094910513114e-06
34,22.102531317205504,5.754446375299609e-06
35,22.8819754008782,5.9037430644855416e-06
36,23.688906520663643,6.0591117971691555e-06
37,24.52429400500943,6.350447259069276e-06
38,25.389141365333845,6.385724711447618e-06
39,26.284487502035432,6.5562163964373305e-06
40,27.211407952,6.7312001039630435e-06
41,28.17101618100645,6.910559418349586e-06
42,29.16446492116747,7.094235603839169e-06
43,30.192947555582037,7.282217833326059e-06
44,31.25769955156026,7.474621234850148e-06
45,32.35999994582204,7.6720763304844e-06
46,33.50117287935651,7.87767542406461e-06
47,34.682589189561554,8.10654161745918e-06
48,35.90566805598974,8.394306534716446e-06
49,37.171878705415125,8.82115510071223e-06
50,38.48274217703732,9.355896902064915e-06
51,39.83983314904722,1.00629842601229e-05
52,41.24478183090835,8.612694541114979e-06
53,42.69927592108156,8.477527664804426e-06
54,44.20506263441101,8.169214759677492e-06
55,45.76395080162035,7.643262857654159e-06
56,47.377813041327286,6.868386057756906e-06
57,49.04858801001886,5.78450192958874e-06
58,50.778282730803745,4.0571041639092226e-06
59,52.568975004070865,2.0520560768206865e-06
60,54.422815904,1.379618197626728e-07
61,56.342032362148956,9.091427860553025e-08
62,58.328929842471,7.701536125866794e-08
63,60.38589511102802,7.342855828329365e-08
64,62.51539910325658,7.333698265916306e-08
65,64.71999989150801,7.437479026726561e-08
66,67.00234575871302,7.575692616031432e-08
67,69.36517837912311,7.723545438869684e-08
68,71.81133611184343,7.87369045769232e-08
69,74.34375741083025,8.024203178131689e-08
70,76.96548435393859,8.174786602462782e-08
71,79.67966629809445,8.325637800888445e-08
72,82.4895636618167,8.47713431209929e-08
73,85.39855184202706,8.629760782930325e-08
74,88.41012526895807,8.784102152972482e-08
75,91.52790160337675,8.940853675818766e-08
76,94.75562608279063,9.100834131811833e-08
77,98.09717602017378,9.26499850315279e-08
78,101.55656546147144,9.434448707340298e-08
79,105.13795000814173,9.610441099219192e-08
80,108.845631808,9.794389017487428e-08
81,112.68406472416184,9.987858357548694e-08
82,116.65785968480594,1.019255432987216e-07
83,120.77179022205604,1.0410298293349956e-07
84,125.03079820651315,1.0642994679417455e-07
85,129.43999978301602,1.0892589238399353e-07
86,134.00469151742604,1.1161020813342101e-07
87,138.73035675879046,1.1450169358043115e-07
88,143.62267222395897,1.1761802906676974e-07
89,148.68751482111628,1.2097525774482195e-07
90,153.9309687081493,1.2458729614012015e-07
91,159.3593325967331,1.284654826574687e-07
92,164.97912732390552,1.3261816779277615e-07
93,170.79710368350987,1.3705034605389261e-07
94,176.82025053791614,1.4176332799059872e-07
95,183.0558032072977,1.467544510762297e-07
96,189.511252165037,1.5201683019402258e-07
97,196.19435204061966,1.575391517632644e-07
98,203.11313092321498,1.6330551962727146e-07
99,210.27590001628346,1.6929536515035159e-07
100,217.691263616,1.7548343743896064e-07
101,225.3681294488679,1.8183989140287795e-07
102,233.315719369884,1.883304901263848e-07
103,241.54358044438416,1.9491693323322914e-07
104,250.06159641357056,2.0155731481087593e-07
105,258.8799995654878,2.0820670462809964e-07
106,268.0093830345799,2.1481783702496495e-07
107,277.4607135162203,2.2134188515596958e-07
108,287.24534444791794,2.2772929533567974e-07
109,297.3750296435931,2.3393065656178645e-07
110,307.8619374162986,2.398975825154314e-07
111,318.7186651921057,2.455835854722981e-07
112,329.95825464781103,2.509449225012477e-07
113,341.5942073683803,2.559413935529303e-07
114,353.6405010758323,2.605370694047279e-07
115,366.1116064132348,2.647009259055173e-07
116,379.02250433143456,2.6840736098973535e-07
117,392.3887040798788,2.716365732269133e-07
118,406.22626184642996,2.7437478555326306e-07
119,420.5518000325669,2.766143048873839e-07
120,435.382527232,2.783534169590127e-07
121,450.7362588963753,2.795961245083347e-07
122,466.631438739768,2.803517454338853e-07
123,483.0871608887683,2.8063439420646354e-07
124,500.1231928257805,2.804623746665977e-07
125,517.7599991323361,2.798575146286956e-07
126,536.0187660691598,2.7884447274786524e-07
127,554.9214270324406,2.7745004610519715e-07
128,574.4906888944753,2.7570250324452146e-07
129,594.7500592858256,2.7363096280930387e-07
130,615.7238748312366,2.712648326862603e-07
131,637.437330385572,2.6863331935645085e-07
132,659.9165092942615,2.6576501241510426e-07
133,683.1884147367606,2.6268754504295555e-07
134,707.2810021516646,2.594273278075095e-07
135,732.2232128264696,2.5600935080818807e-07
136,758.0450086628691,2.5245704735005633e-07
137,784.7774081611182,2.487922114823766e-07
138,812.4525236928599,2.4503496128546563e-07
139,841.1036000651338,2.412037399711089e-07
140,870.765054464,2.3731534723803727e-07
141,901.4725177927506,2.3338499401943022e-07
142,933.2628774781754,2.2942637454568765e-07
143,966.1743217761763,2.254517504832335e-07
144,1000.246385651561,2.2147204275221767e-07
145,1035.5199982646723,2.1749692740817377e-07
146,1072.0375321396803,2.1353493270757146e-07
147,1109.8428540648813,2.0959353511005554e-07
148,1148.9813777903112,2.0567925252454883e-07
149,1189.5001185730118,2.017977335686666e-07
150,1231.4477496638337,1.979538420155578e-07
151,1274.8746607697833,1.9415173588658067e-07
152,1319.8330185898835,1.9039494092355989e-07
153,1366.3768294762424,1.8668641834789013e-07
154,1414.5620043087713,1.830286269738966e-07
155,1464.446425647497,1.794235798358318e-07
156,1516.0900173257382,1.758728955905904e-07
157,1569.554816319515,1.7237784494875567e-07
158,1624.905047388441,1.689393925179819e-07
159,1682.2072001248252,1.6555823433134172e-07
160,1741.530108928,1.6223483145938143e-07
161,1802.9450355909432,1.5896943999147602e-07
162,1866.5257549617932,1.557621377496437e-07
163,1932.3486435577945,1.5261284802197635e-07
164,2000.4927713085644,1.4952136060630072e-07
165,2071.0399965239026,1.4648735043877805e-07
166,2144.0750642766393,1.4351039405967807e-07
167,2219.685708132484,1.4058998412660955e-07
168,2297.9627555806223,1.3772554221024406e-07
169,2379.000237151466,1.349164300399318e-07
170,2462.8954993303887,1.321619593799728e-07
171,2549.7493215395666,1.2946140068814234e-07
172,2639.6660371743246,1.2681399069699427e-07
173,2732.753658952485,1.2421893903928184e-07
174,2829.124008603937,1.2167543403231062e-07
175,2928.8928513086,1.1918264771369255e-07
176,3032.1800346514765,1.1673974022496959e-07
177,3139.10963263903,1.1434586360990078e-07
178,3249.8100947632765,1.1200016511504232e-07
179,3364.4144002632565,1.0970179002852207e-07
180,3483.060217856,1.0744988413745822e-07
181,3605.890071168281,1.0524359583112381e-07
182,3733.0515099099807,1.0308207791092181e-07
183,3864.6972871019834,1.0096448912488939e-07
184,4000.9855426035233,9.888999547781401e-08
185,4142.079993061411,9.685777133431722e-08
186,4288.150128553279,9.486700034500876e-08
187,4439.371416264968,9.291687622003013e-08
188,4595.925511161245,9.100660336265324e-08
189,4758.000474289327,8.913539739068928e-08
190,4925.790998660777,8.730248555093587e-08
191,5099.498643079133,8.550710704639209e-08
192,5279.332074362255,8.37485132872621e-08
193,5465.507317891364,8.20259680722345e-08
194,5658.248017207874,8.033874771433563e-08
195,5857.7857026172,7.868614111511535e-08
196,6064.360069302953,7.706744979609336e-08
197,6278.2192652916665,7.548198789356038e-08
198,6499.620189540159,7.392908212138928e-08
199,6728.828800526513,7.240807170650984e-08
200,6966.120435712,7.091830830060108e-08
201,7211.780142350168,6.945915587422605e-08
202,7466.103019833567,6.802999059207576e-08
203,7729.394574217573,6.66302006759426e-08
204,8001.971085207047,6.525918625613451e-08
205,8284.159986109216,6.391635921218189e-08
206,8576.300257120163,6.260114300693799e-08
207,8878.74283251633,6.131297251503243e-08
208,9191.85102232249,6.005129384533298e-08
209,9516.000948578654,5.8815564159212073e-08
210,9851.581997307949,5.760525148867557e-08
211,10198.997286158266,5.641983455057861e-08
212,10558.664148710905,5.525880255940287e-08
213,10931.014635782729,5.41216550418397e-08
214,11316.496034429352,5.300790164948019e-08
215,11715.5714052344,5.191706197283802e-08
216,12128.720138592302,5.084866535574088e-08
217,12556.438530569727,4.980225071267542e-08
218,12999.240379080318,4.877736634599026e-08
219,13457.657601039418,4.777356976599907e-08
220,13932.240871424,4.679042751212982e-08
221,14423.560284645913,4.582751497782284e-08
222,14932.206039694345,4.488441623604319e-08
223,15458.789148462356,4.3960723868578845e-08
224,16003.942170468516,4.305603879776197e-08
225,16568.31997219122,4.216997011970703e-08
226,17152.60051429475,4.130213494260132e-08
227,17757.485664978238,4.045215822329262e-08
228,18383.702044617767,3.961967261343141e-08
229,19032.00189721173,3.880431830094581e-08
230,19703.163994615898,3.800574285923636e-08
231,20397.994572343745,3.7223601098366e-08
232,21117.32829747623,3.64575549169568e-08
233,21862.029271538242,3.570727315899761e-08
234,22632.992068885917,3.497243147284033e-08
235,23431.1428104688,3.42527121713755e-08
236,24257.440277184603,3.354780409761079e-08
237,25112.877061193878,3.285740249034815e-08
238,25998.480758187845,3.2181208853805196e-08
239,26915.315202106052,3.151893082995812e-08
240,27864.481742848,3.0870282072093576e-08
241,28847.12056942788,3.023498212249978e-08
242,29864.412079252634,2.961275629136213e-08
243,30917.578296788655,2.900333553885648e-08
244,32007.884340800967,2.8406456358897153e-08
245,33136.6399445185,2.782186066607791e-08
246,34305.20102845344,2.7249295683779307e-08
247,35514.97133009253,2.668851383627834e-08
248,36767.40408923553,2.6139272640510887e-08
249,38064.003794287404,2.5601334602963602e-08
250,39406.327989231795,2.5074467115872718e-08
251,40795.98914468749,2.4558442357947576e-08
252,42234.656594816406,2.4053037194780787e-08
253,43724.058543212544,2.3558033084129323e-08
254,45265.98413777183,2.3073215979607216e-08
255,46862.2856209376,2.259837623999282e-08
256,48514.88055436921,2.2133308537412593e-08
257,50225.754122251696,2.1677811769487438e-08
258,51996.96151623964,2.12316889719022e-08
259,53830.630404212105,2.0794747233237832e-08
260,55728.963485696,2.036679761214515e-08
