,E (eV),I (erg/s/cm**2)
0,6.802851988,0.0006693104638294312
1,7.042754045265218,0.0006841333482109241
2,7.2911162302986705,0.0006969903671071064
3,7.548236888881904,0.0007089520002607351
4,7.814424887910474,0.0007186447789379126
5,8.0899999864351,0.0007255551080999341
6,8.375293219832324,0.0007291385127061098
7,8.670647297390389,0.0007288007833898859
8,8.976417013977027,0.0007239147761151942
9,9.292969676346978,0.0007138292141814269
10,9.620685544252527,0.0006978499096988833
11,9.95995828726861,0.0006694190484946753
12,10.311195457727088,0.0006167005934845489
13,10.674818980263586,0.0005758658875806192
14,11.051265658616357,0.0005262782857826843
15,11.440987700425495,0.00046725596588008134
16,11.844453260345427,0.00039820432084559086
17,12.26214700251832,0.00031857087339765705
18,12.694570682694135,0.00022782841224858264
19,13.142243751017716,0.00012546778505071398
20,13.605703976,5.426063781416613e-06
21,14.085508090503225,5.01755877334216e-06
22,14.582232460651763,4.778414964292596e-06
23,15.096473777791019,4.615000415557887e-06
24,15.62884977584816,4.514734714971296e-06
25,16.17999997284299,4.466646885945736e-06
26,16.750586439610224,4.461308223396757e-06
27,17.341294594780777,4.490737054388643e-06
28,17.95283402792684,4.548282530082835e-06
29,18.585939352639535,4.6284937680849075e-06
30,19.241371088450634,4.726979946436604e-06
31,19.91991657459164,4.840266518600146e-06
32,20.622390915454176,4.9656525809141485e-06
33,21.349637960472748,5.1010744016616724e-06
34,22.102531317205504,5.244979916204448e-06
35,22.8819754008782,5.396218322642229e-06
36,23.688906520663643,5.553947620215627e-06
37,24.52429400500943,5.804479224669501e-06
38,25.389141365333845,5.886631571128783e-06
39,26.284487502035432,6.060870622292061e-06
40,27.211407952,6.240098166279696e-06
41,28.17101618100645,6.42421819727017e-06
42,29.16446492116747,6.6131956698341885e-06
43,30.192947555582037,6.8070356991596575e-06
44,31.25769955156026,7.00575907505946e-06
45,32.35999994582204,7.209395630583809e-06
46,33.50117287935651,7.418058224316423e-06
47,34.682589189561554,7.632391533404857e-06
48,35.90566805598974,7.855302237052929e-06
49,37.171878705415125,8.110678433483763e-06
50,38.48274217703732,8.456534677583988e-06
51,39.83983314904722,9.017679615811084e-06
52,41.24478183090835,8.498972675572819e-06
53,42.69927592108156,8.505072538592004e-06
54,44.20506263441101,8.359965908661527e-06
55,45.76395080162035,7.99192755827756e-06
56,47.377813041327286,7.3112453070339335e-06
57,49.04858801001886,6.212089835021378e-06
58,50.778282730803745,4.590228285880445e-06
59,52.568975004070865,2.378800760606039e-06
60,54.422815904,1.9428008470785957e-08
61,56.342032362148956,1.4201642706538511e-08
62,58.328929842471,1.299429855127955e-08
63,60.38589511102802,1.3017074845191774e-08
64,62.51539910325658,1.3484360525194111e-08
65,64.71999989150801,1.4111620558096788e-08
66,67.00234575871302,1.4800452738038081e-08
67,69.36517837912311,1.5518576894145683e-08
68,71.81133611184343,1.6256223659247095e-08
69,74.34375741083025,1.7011044868810383e-08
70,76.96548435393859,1.77831546915871e-08
71,79.67966629809445,1.8573589960361088e-08
72,82.4895636618167,1.938386519162194e-08
73,85.39855184202706,2.0215859247955633e-08
74,88.41012526895807,2.1071796876364e-08
75,91.52790160337675,2.1954256244099094e-08
76,94.75562608279063,2.2866184127934123e-08
77,98.09717602017378,2.3810914339095174e-08
78,101.55656546147144,2.479218774573488e-08
79,105.13795000814173,2.581417159440957e-08
80,108.845631808,2.688147427325423e-08
81,112.68406472416184,2.799915036352857e-08
82,116.65785968480594,2.917269048868115e-08
83,120.77179022205604,3.040799140066191e-08
84,125.03079820651315,3.171130379495926e-08
85,129.43999978301602,3.3089158002512806e-08
86,134.00469151742604,3.4548270280517214e-08
87,138.73035675879046,3.609543429895675e-08
88,143.62267222395897,3.773740324768053e-08
89,148.68751482111628,3.9480767744387175e-08
90,153.9309687081493,4.13318336215068e-08
91,159.3593325967331,4.329650207073016e-08
92,164.97912732390552,4.538015284983299e-08
93,170.79710368350987,4.758752954180232e-08
94,176.82025053791614,4.992262440160138e-08
95,183.0558032072977,5.238855925558004e-08
96,189.511252165037,5.498745843231125e-08
97,196.19435204061966,5.772030997333587e-08
98,203.11313092321498,6.058681261391532e-08
99,210.27590001628346,6.358520834760474e-08
100,217.691263616,6.671210365398072e-08
101,225.3681294488679,6.99622863810753e-08
102,233.315719369884,7.332854911018148e-08
103,241.54358044438416,7.680153282060032e-08
104,250.06159641357056,8.036960606634638e-08
105,258.8799995654878,8.401879435053565e-08
106,268.0093830345799,8.773277211642304e-08
107,277.4607135162203,9.149292637176095e-08
108,287.24534444791794,9.527849718083295e-08
109,297.3750296435931,9.906679667709513e-08
110,307.8619374162986,1.0283350508279801e-07
111,318.7186651921057,1.0655303931314069e-07
112,329.95825464781103,1.1019898688015116e-07
113,341.5942073683803,1.1374459460861439e-07
114,353.6405010758323,1.1716329828877801e-07
115,366.1116064132348,1.2042927590697907e-07
116,379.02250433143456,1.2351800409791065e-07
117,392.3887040798788,1.2640679533778607e-07
118,406.22626184642996,1.2907529282189032e-07
119,420.5518000325669,1.3150590091088874e-07
120,435.382527232,1.3368413193775612e-07
121,450.7362588963753,1.355988544813511e-07
122,466.631438739768,1.3724243383708506e-07
123,483.0871608887683,1.386107616653155e-07
124,500.1231928257805,1.3970317814478535e-07
125,517.7599991323361,1.40522295806371e-07
126,536.0187660691598,1.4107373906877393e-07
127,554.9214270324406,1.4136581699933817e-07
128,574.4906888944753,1.4140914874491293e-07
129,594.7500592858256,1.4121626149250305e-07
130,615.7238748312366,1.4080117979316399e-07
131,637.437330385572,1.401790229837894e-07
132,659.9165092942615,1.3936562455317736e-07
133,683.1884147367606,1.3837718403276504e-07
134,707.2810021516646,1.372299586336864e-07
135,732.2232128264696,1.3593999873749653e-07
136,758.0450086628691,1.345229285788534e-07
137,784.7774081611182,1.3299377122969341e-07
138,812.4525236928599,1.31366815292467e-07
139,841.1036000651338,1.2965551952510607e-07
140,870.765054464,1.2787245092221807e-07
141,901.4725177927506,1.2602925146004388e-07
142,933.2628774781754,1.2413662870423613e-07
143,966.1743217761763,1.2220436570897693e-07
144,1000.246385651561,1.2024134599925515e-07
145,1035.5199982646723,1.1825558989665022e-07
146,1072.0375321396803,1.1625429894567924e-07
147,1109.8428540648813,1.1424390570645515e-07
148,1148.9813777903112,1.1223012665538123e-07
149,1189.5001185730118,1.1021801637970704e-07
150,1231.4477496638337,1.0821202164690709e-07
151,1274.8746607697833,1.0621603426242798e-07
152,1319.8330185898835,1.0423344192625425e-07
153,1366.3768294762424,1.0226717653508371e-07
154,1414.5620043087713,1.0031975956859865e-07
155,1464.446425647497,9.839334435170498e-08
156,1516.0900173257382,9.648975512557111e-08
157,1569.554816319515,9.461052290579842e-08
158,1624.905047388441,9.275691823899222e-08
159,1682.2072001248252,9.092998095499898e-08
160,1741.530108928,8.913054709103521e-08
161,1802.9450355909432,8.735927314874616e-08
162,1866.5257549617932,8.561665788987429e-08
163,1932.3486435577945,8.390306185372148e-08
164,2000.4927713085644,8.221872478662718e-08
165,2071.0399965239026,8.056378117329605e-08
166,2144.0750642766393,7.893827404314319e-08
167,2219.685708132484,7.734216721650786e-08
168,2297.9627555806223,7.577535615474585e-08
169,2379.000237151466,7.423767754361876e-08
170,2462.8954993303887,7.272891775827535e-08
171,2549.7493215395666,7.124882031812251e-08
172,2639.6660371743246,6.979709244536985e-08
173,2732.753658952485,6.837341082913213e-08
174,2829.124008603937,6.697742667904658e-08
175,2928.8928513086,6.56087701571256e-08
176,3032.1800346514765,6.426705424876074e-08
177,3139.10963263903,6.295187814729969e-08
178,3249.8100947632765,6.1662830204869e-08
179,3364.4144002632565,6.039949050066629e-08
180,3483.060217856,5.916143307226975e-08
181,3605.890071168281,5.7948227853778764e-08
182,3733.0515099099807,5.6759442350604236e-08
183,3864.6972871019834,5.5594643086552055e-08
184,4000.9855426035233,5.4453396850833616e-08
185,4142.079993061411,5.333527176809418e-08
186,4288.150128553279,5.223983821431846e-08
187,4439.371416264968,5.116666959868484e-08
188,4595.925511161245,5.011534302521408e-08
189,4758.000474289327,4.9085439852897284e-08
190,4925.790998660777,4.807654616443669e-08
191,5099.498643079133,4.708825315704421e-08
192,5279.332074362255,4.612015746399113e-08
193,5465.507317891364,4.517186141613526e-08
194,5658.248017207874,4.42429732528031e-08
195,5857.7857026172,4.333310728620524e-08
196,6064.360069302953,4.244188402654715e-08
197,6278.2192652916665,4.156893027434694e-08
198,6499.620189540159,4.07138791822799e-08
199,6728.828800526513,3.987637029288107e-08
200,6966.120435712,3.9056049552827344e-08
201,7211.780142350168,3.825256930998299e-08
202,7466.103019833567,3.746558829334686e-08
203,7729.394574217573,3.669477158022901e-08
204,8001.971085207047,3.593979055063632e-08
205,8284.159986109216,3.520032283267109e-08
206,8576.300257120163,3.44760522395902e-08
207,8878.74283251633,3.376666869899036e-08
208,9191.85102232249,3.307186817722566e-08
209,9516.000948578654,3.239135259919576e-08
210,9851.581997307949,3.172482976298734e-08
211,10198.997286158266,3.1072013252143526e-08
212,10558.664148710905,3.0432622347036794e-08
213,10931.014635782729,2.980638193096872e-08
214,11316.496034429352,2.9193022398430083e-08
215,11715.5714052344,2.8592279560383937e-08
216,12128.720138592302,2.8003894549793164e-08
217,12556.438530569727,2.742761372684359e-08
218,12999.240379080318,2.6863188584021108e-08
219,13457.657601039418,2.631037565177743e-08
220,13932.240871424,2.5768936404783367e-08
221,14423.560284645913,2.5238637168280815e-08
222,14932.206039694345,2.4719249026502133e-08
223,15458.789148462356,2.4210547729788313e-08
224,16003.942170468516,2.3712313605822827e-08
225,16568.31997219122,2.3224331469199025e-08
226,17152.60051429475,2.2746390534432268e-08
227,17757.485664978238,2.227828432748495e-08
228,18383.702044617767,2.1819810602527753e-08
229,19032.00189721173,2.137077125580576e-08
230,19703.163994615898,2.0930972243819557e-08
231,20397.994572343745,2.0500223502002325e-08
232,21117.32829747623,2.00783388644432e-08
233,21862.029271538242,1.9665135985044397e-08
234,22632.992068885917,1.92604362613327e-08
235,23431.1428104688,1.886406475721144e-08
236,24257.440277184603,1.8475850129866008e-08
237,25112.877061193878,1.8095624556243226e-08
238,25998.480758187845,1.7723223661353383e-08
239,26915.315202106052,1.7358486448068093e-08
240,27864.481742848,1.7001255228484054e-08
241,28847.12056942788,1.6651375556194466e-08
242,29864.412079252634,1.6308696159894247e-08
243,30917.578296788655,1.5973068878827148e-08
244,32007.884340800967,1.5644348598830753e-08
245,33136.6399445185,1.5322393189847635e-08
246,34305.20102845344,1.500706344526064e-08
247,35514.97133009253,1.4698223021472535e-08
248,36767.40408923553,1.4395738379520758e-08
249,38064.003794287404,1.4099478727593597e-08
250,39406.327989231795,1.3809315964039889e-08
251,40795.98914468749,1.352512462301358e-08
252,42234.656594816406,1.3246781819552916e-08
253,43724.058543212544,1.2974167197397706e-08
254,45265.98413777183,1.2707162876108233e-08
255,46862.2856209376,1.244565340091932e-08
256,48514.88055436921,1.2189525692593112e-08
257,50225.754122251696,1.1938668998631142e-08
258,51996.96151623964,1.1692974845429303e-08
259,53830.630404212105,1.145233699146559e-08
260,55728.963485696,1.121665138129498e-08
