,E (eV),I (erg/s/cm**2)
0,6.802851988,0.0006957161757100356
1,7.042754045265218,0.0007145363850231164
2,7.2911162302986705,0.0007326477400581666
3,7.548236888881904,0.0007494824862346693
4,7.814424887910474,0.0007645824124938393
5,8.0899999864351,0.0007774097976130229
6,8.375293219832324,0.0007852417069225447
7,8.670647297390389,0.000791235335135451
8,8.976417013977027,0.0007927991893565696
9,9.292969676346978,0.0007890554357610521
10,9.620685544252527,0.0007789508675686062
11,9.95995828726861,0.0007571033195524095
12,10.311195457727088,0.0007070625851266509
13,10.674818980263586,0.0006679942357749302
14,11.051265658616357,0.0006177120721433029
15,11.440987700425495,0.000554951846447897
16,11.844453260345427,0.0004728081083912783
17,12.26214700251832,0.0003808893230716669
18,12.694570682694135,0.0002729899725902044
19,13.142243751017716,0.00014783011334469474
20,13.605703976,4.546443410335975e-06
21,14.085508090503225,4.171802200985734e-06
22,14.582232460651763,3.96067357802755e-06
23,15.096473777791019,3.8160401151777375e-06
24,15.62884977584816,3.7272330551196305e-06
25,16.17999997284299,3.684884363981872e-06
26,16.750586439610224,3.6808882494133244e-06
27,17.341294594780777,3.7083367687430754e-06
28,17.95283402792684,3.761435538241895e-06
29,18.585939352639535,3.8354049042049165e-06
30,19.241371088450634,3.9263712510516625e-06
31,19.91991657459164,4.031252662394369e-06
32,20.622390915454176,4.147643010572401e-06
33,21.349637960472748,4.273698635579248e-06
34,22.102531317205504,4.408031838631092e-06
35,22.8819754008782,4.5496151678862295e-06
36,23.688906520663643,4.697699679379389e-06
37,24.52429400500943,4.945508992644687e-06
38,25.389141365333845,5.0113888578834474e-06
39,26.284487502035432,5.176370982624692e-06
40,27.211407952,5.346546497341873e-06
41,28.17101618100645,5.521846080003592e-06
42,29.16446492116747,5.70226221353434e-06
43,30.192947555582037,5.887831208843507e-06
44,31.25769955156026,6.078614024285438e-06
45,32.35999994582204,6.274676181291216e-06
46,33.50117287935651,6.476055156617905e-06
47,34.682589189561554,6.68275040247434e-06
48,35.90566805598974,6.894661667627706e-06
49,37.171878705415125,7.112162191410817e-06
50,38.48274217703732,7.3356107938720935e-06
51,39.83983314904722,7.569881974530228e-06
52,41.24478183090835,7.72284520355253e-06
53,42.69927592108156,7.863705437089453e-06
54,44.20506263441101,7.908982666064523e-06
55,45.76395080162035,7.78196165054978e-06
56,47.377813041327286,7.238805352612106e-06
57,49.04858801001886,6.293458010884867e-06
58,50.778282730803745,4.655616914302589e-06
59,52.568975004070865,2.0615108120227732e-06
60,54.422815904,3.838359802246744e-14
61,56.342032362148956,4.5516707251269444e-14
62,58.328929842471,8.282203882593143e-14
63,60.38589511102802,1.5097055006662921e-13
64,62.51539910325658,2.716938643859438e-13
65,64.71999989150801,4.802687838421065e-13
66,67.00234575871302,8.325151154434727e-13
67,69.36517837912311,1.4145008065093085e-12
68,71.81133611184343,2.355513988217548e-12
69,74.34375741083025,3.844718485648777e-12
70,76.96548435393859,6.151613733261417e-12
71,79.67966629809445,9.649953252803015e-12
72,82.4895636618167,1.484415152545624e-11
73,85.39855184202706,2.2396486133091308e-11
74,88.41012526895807,3.315268970019769e-11
75,91.52790160337675,4.8162974714753277e-11
76,94.75562608279063,6.869530776370416e-11
77,98.09717602017378,9.6237982827347e-11
78,101.55656546147144,1.3248929315022336e-10
79,105.13795000814173,1.7933331125145204e-10
80,108.845631808,2.388022815091404e-10
81,112.68406472416184,3.130276512810063e-10
82,116.65785968480594,4.0418304279849593e-10
83,120.77179022205604,5.14423290656685e-10
84,125.03079820651315,6.45823946815336e-10
85,129.43999978301602,8.003254202146453e-10
86,134.00469151742604,9.796852944805922e-10
87,138.73035675879046,1.1854415096897143e-09
88,143.62267222395897,1.418888137345425e-09
89,148.68751482111628,1.681064509302073e-09
90,153.9309687081493,1.972757524642268e-09
91,159.3593325967331,2.2945160742440368e-09
92,164.97912732390552,2.646675711156044e-09
93,170.79710368350987,3.0293909893917796e-09
94,176.82025053791614,3.442672345019336e-09
95,183.0558032072977,3.886424054835436e-09
96,189.511252165037,4.3604797263041935e-09
97,196.19435204061966,4.864631967382957e-09
98,203.11313092321498,5.39865334647224e-09
99,210.27590001628346,5.962306438431217e-09
100,217.691263616,6.555341589985373e-09
101,225.3681294488679,7.177481949219035e-09
102,233.315719369884,7.828396199763323e-09
103,241.54358044438416,8.507660249300514e-09
104,250.06159641357056,9.214709780668908e-09
105,258.8799995654878,9.948786065496664e-09
106,268.0093830345799,1.0708877761585882e-08
107,277.4607135162203,1.1493661609470399e-08
108,287.24534444791794,1.2301445063824877e-08
109,297.3750296435931,1.313011397464434e-08
110,307.8619374162986,1.3977088498214972e-08
111,318.7186651921057,1.4839290441677078e-08
112,329.95825464781103,1.5713125182705007e-08
113,341.5942073683803,1.6594481083151402e-08
114,353.6405010758323,1.7478748882210897e-08
115,366.1116064132348,1.83608628490576e-08
116,379.02250433143456,1.9235364508659623e-08
117,392.3887040798788,2.0096488540351927e-08
118,406.22626184642996,2.0938269067433168e-08
119,420.5518000325669,2.1754663103482416e-08
120,435.382527232,2.2539686528444438e-08
121,450.7362588963753,2.328755676298703e-08
122,466.631438739768,2.3992835449913166e-08
123,483.0871608887683,2.4650564031972003e-08
124,500.1231928257805,2.52563852603932e-08
125,517.7599991323361,2.580664436574577e-08
126,536.0187660691598,2.6298464887619448e-08
127,554.9214270324406,2.672979584125211e-08
128,574.4906888944753,2.7099428852776907e-08
129,594.7500592858256,2.740698589924003e-08
130,615.7238748312366,2.765288013054514e-08
131,637.437330385572,2.7838253747315853e-08
132,659.9165092942615,2.7964897942326393e-08
133,683.1884147367606,2.8035160424907948e-08
134,707.2810021516646,2.8051846063086318e-08
135,732.2232128264696,2.8018115776793485e-08
136,758.0450086628691,2.793738811078469e-08
137,784.7774081611182,2.7813247010587133e-08
138,812.4525236928599,2.7649358376644006e-08
139,841.1036000651338,2.7449397030108707e-08
140,870.765054464,2.7216984889969017e-08
141,901.4725177927506,2.6955640467031598e-08
142,933.2628774781754,2.6668739235005524e-08
143,966.1743217761763,2.6359484059522345e-08
144,1000.246385651561,2.6030884614058642e-08
145,1035.5199982646723,2.5685744589140876e-08
146,1072.0375321396803,2.5326655466509975e-08
147,1109.8428540648813,2.4955995666810138e-08
148,1148.9813777903112,2.4575933961652145e-08
149,1189.5001185730118,2.4188436155491798e-08
150,1231.4477496638337,2.3795274168108052e-08
151,1274.8746607697833,2.3398036778391393e-08
152,1319.8330185898835,2.299814141755538e-08
153,1366.3768294762424,2.2596846513630927e-08
154,1414.5620043087713,2.219526399578002e-08
155,1464.446425647497,2.1794371655415184e-08
156,1516.0900173257382,2.1395025140735317e-08
157,1569.554816319515,2.0997969420433503e-08
158,1624.905047388441,2.060384961397639e-08
159,1682.2072001248252,2.021322111567874e-08
160,1741.530108928,1.98265589853075e-08
161,1802.9450355909432,1.9444266590521126e-08
162,1866.5257549617932,1.9066683518182573e-08
163,1932.3486435577945,1.8694092773717248e-08
164,2000.4927713085644,1.8326727304786408e-08
165,2071.0399965239026,1.7964775888058935e-08
166,2144.0750642766393,1.7608388422894244e-08
167,2219.685708132484,1.7257680675572467e-08
168,2297.9627555806223,1.691273852031315e-08
169,2379.000237151466,1.657362172088049e-08
170,2462.8954993303887,1.6240367292993133e-08
171,2549.7493215395666,1.591299249050291e-08
172,2639.6660371743246,1.5591497450208093e-08
173,2732.753658952485,1.5275867531217823e-08
174,2829.124008603937,1.496607538013901e-08
175,2928.8928513086,1.466208275245561e-08
176,3032.1800346514765,1.4363842115294612e-08
177,3139.10963263903,1.4071298056396181e-08
178,3249.8100947632765,1.3784388521577892e-08
179,3364.4144002632565,1.3503045898484625e-08
180,3483.060217856,1.3227197965962727e-08
181,3605.890071168281,1.2956768724554202e-08
182,3733.0515099099807,1.2691679120551551e-08
183,3864.6972871019834,1.2431847677487326e-08
184,4000.9855426035233,1.2177191046287265e-08
185,4142.079993061411,1.1927624482689519e-08
186,4288.150128553279,1.1683062261028341e-08
187,4439.371416264968,1.1443418033563505e-08
188,4595.925511161245,1.120860513956103e-08
189,4758.000474289327,1.0978536872412059e-08
190,4925.790998660777,1.0753126708713894e-08
191,5099.498643079133,1.0532288504550973e-08
192,5279.332074362255,1.0315936663123935e-08
193,5465.507317891364,1.0103986276938954e-08
194,5658.248017207874,9.896353248175505e-09
195,5857.7857026172,9.692954389808248e-09
196,6064.360069302953,9.49370750987533e-09
197,6278.2192652916665,9.29853148131205e-09
198,6499.620189540159,9.107346298909838e-09
199,6728.828800526513,8.9200731253669e-09
200,6966.120435712,8.736634327585568e-09
201,7211.780142350168,8.556953504819608e-09
202,7466.103019833567,8.380955509468481e-09
203,7729.394574217573,8.20856646165435e-09
204,8001.971085207047,8.039713758484375e-09
205,8284.159986109216,7.874326078608398e-09
206,8576.300257120163,7.7123333829169e-09
207,8878.74283251633,7.553666911452993e-09
208,9191.85102232249,7.3982591780495765e-09
209,9516.000948578654,7.246043961789517e-09
210,9851.581997307949,7.096956296860277e-09
211,10198.997286158266,6.950932460331148e-09
212,10558.664148710905,6.807909958647773e-09
213,10931.014635782729,6.6678275127528505e-09
214,11316.496034429352,6.530625042181794e-09
215,11715.5714052344,6.3962436484937626e-09
216,12128.720138592302,6.264625597751966e-09
217,12556.438530569727,6.1357143028204686e-09
218,12999.240379080318,6.0094543048261955e-09
219,13457.657601039418,5.885791254744585e-09
220,13932.240871424,5.764671894612649e-09
221,14423.560284645913,5.646044038403378e-09
222,14932.206039694345,5.529856553303765e-09
223,15458.789148462356,5.4160593404955965e-09
224,16003.942170468516,5.304603316322837e-09
225,16568.31997219122,5.195440393342358e-09
226,17152.60051429475,5.088523461865024e-09
227,17757.485664978238,4.983806370938168e-09
228,18383.702044617767,4.881243910467875e-09
229,19032.00189721173,4.7807917926237705e-09
230,19703.163994615898,4.682406634063203e-09
231,20397.994572343745,4.5860459382800926e-09
232,21117.32829747623,4.491668077987167e-09
233,21862.029271538242,4.399232277981822e-09
234,22632.992068885917,4.308698598266419e-09
235,23431.1428104688,4.220027917187365e-09
236,24257.440277184603,4.1331819152709955e-09
237,25112.877061193878,4.04812305894597e-09
238,25998.480758187845,3.9648145847685236e-09
239,26915.315202106052,3.883220483889422e-09
240,27864.481742848,3.80330548674377e-09
241,28847.12056942788,3.7250350481021216e-09
242,29864.412079252634,3.6483753322975904e-09
243,30917.578296788655,3.5732931989129783e-09
244,32007.884340800967,3.4997561884726285e-09
245,33136.6399445185,3.4277325086899696e-09
246,34305.20102845344,3.3571910207288942e-09
247,35514.97133009253,3.288101225989151e-09
248,36767.40408923553,3.220433252895866e-09
249,38064.003794287404,3.154157844149995e-09
250,39406.327989231795,3.089246344112685e-09
251,40795.98914468749,3.0256706864875743e-09
252,42234.656594816406,2.9634033822284565e-09
253,43724.058543212544,2.902417507756515e-09
254,45265.98413777183,2.8426866932861596e-09
255,46862.2856209376,2.7841851115108934e-09
256,48514.88055436921,2.7268874664475715e-09
257,50225.754122251696,2.670768982551928e-09
258,51996.96151623964,2.6158053939912737e-09
259,53830.630404212105,2.5619729341984594e-09
260,55728.963485696,2.5092483255933905e-09
