,E (eV),I (erg/s/cm**2)
0,6.802851988,0.0006905867301886567
1,7.042754045265218,0.0007099314494871114
2,7.2911162302986705,0.0007287026080950942
3,7.548236888881904,0.0007463618445378806
4,7.814424887910474,0.0007624661984219587
5,8.0899999864351,0.0007764882939912322
6,8.375293219832324,0.0007878086632391683
7,8.670647297390389,0.0007934926667418218
8,8.976417013977027,0.0007967898361262353
9,9.292969676346978,0.0007949760030132668
10,9.620685544252527,0.000786838106273685
11,9.95995828726861,0.0007669860978977821
12,10.311195457727088,0.0007176942742755749
13,10.674818980263586,0.0006799964212773548
14,11.051265658616357,0.0006306647392089103
15,11.440987700425495,0.000568238657262478
16,11.844453260345427,0.0004912342538829174
17,12.26214700251832,0.0003923727653094824
18,12.694570682694135,0.0002811754205230937
19,13.142243751017716,0.000151366745448979
20,13.605703976,4.31178073539132e-06
21,14.085508090503225,3.93292720484875e-06
22,14.582232460651763,3.7313773029251993e-06
23,15.096473777791019,3.5931173391421968e-06
24,15.62884977584816,3.508084125088721e-06
25,16.17999997284299,3.4674240328149774e-06
26,16.750586439610224,3.463461780477725e-06
27,17.341294594780777,3.4896441403800337e-06
28,17.95283402792684,3.5404642490400626e-06
29,18.585939352639535,3.6113715957865915e-06
30,19.241371088450634,3.698672104834861e-06
31,19.91991657459164,3.799422269167853e-06
32,20.622390915454176,3.911321150433743e-06
33,21.349637960472748,4.032604155284916e-06
34,22.102531317205504,4.16194260847662e-06
35,22.8819754008782,4.2983529816835994e-06
36,23.688906520663643,4.4411189630270695e-06
37,24.52429400500943,4.702694479691211e-06
38,25.389141365333845,4.743824490521538e-06
39,26.284487502035432,4.903171985835395e-06
40,27.211407952,5.0676311568157075e-06
41,28.17101618100645,5.237139600100269e-06
42,29.16446492116747,5.411695669452513e-06
43,30.192947555582037,5.591341681625868e-06
44,31.25769955156026,5.776145785764871e-06
45,32.35999994582204,5.966182925648853e-06
46,33.50117287935651,6.161515114587564e-06
47,34.682589189561554,6.362144569656677e-06
48,35.90566805598974,6.5680009608908285e-06
49,37.171878705415125,6.77903723247601e-06
50,38.48274217703732,6.994809703012346e-06
51,39.83983314904722,7.215831650297876e-06
52,41.24478183090835,7.392659209581515e-06
53,42.69927592108156,7.5467314096493e-06
54,44.20506263441101,7.615139724451957e-06
55,45.76395080162035,7.519356312606091e-06
56,47.377813041327286,7.135528167812258e-06
57,49.04858801001886,6.064320140780994e-06
58,50.778282730803745,4.35691059671126e-06
59,52.568975004070865,1.5616193710337128e-06
60,54.422815904,8.487726156395048e-17
61,56.342032362148956,1.0131642219804021e-16
62,58.328929842471,2.6123055981970106e-16
63,60.38589511102802,6.641682224170321e-16
64,62.51539910325658,1.6424546052160184e-15
65,64.71999989150801,3.931810053006215e-15
66,67.00234575871302,9.097728514500978e-15
67,69.36517837912311,2.0341150491988312e-14
68,71.81133611184343,4.3950257515873824e-14
69,74.34375741083025,9.17926494769063e-14
70,76.96548435393859,1.8538580996490767e-13
71,79.67966629809445,3.6221317972010487e-13
72,82.4895636618167,6.850172412025885e-13
73,85.39855184202706,1.2547321028658765e-12
74,88.41012526895807,2.2274465000026194e-12
75,91.52790160337675,3.8352676011704265e-12
76,94.75562608279063,6.410194550928546e-12
77,98.09717602017378,1.0409195883190815e-11
78,101.55656546147144,1.643778880190932e-11
79,105.13795000814173,2.5268770162427904e-11
80,108.845631808,3.785257618533418e-11
81,112.68406472416184,5.531620047177951e-11
82,116.65785968480594,7.894868732869343e-11
83,120.77179022205604,1.1017278743840074e-10
84,125.03079820651315,1.5050413482841988e-10
85,129.43999978301602,2.0150094637944452e-10
86,134.00469151742604,2.647084658294591e-10
87,138.73035675879046,3.416029899456347e-10
88,143.62267222395897,4.335402765387453e-10
89,148.68751482111628,5.4171251254944e-10
90,153.9309687081493,6.671169632696779e-10
91,159.3593325967331,8.10538111074646e-10
92,164.97912732390552,9.725437004228076e-10
93,170.79710368350987,1.1534937888196146e-09
94,176.82025053791614,1.3535607824858328e-09
95,183.0558032072977,1.57275759808368e-09
96,189.511252165037,1.8109705906093173e-09
97,196.19435204061966,2.06799373724828e-09
98,203.11313092321498,2.343560746955237e-09
99,210.27590001628346,2.637372221747534e-09
100,217.691263616,2.9491156481927958e-09
101,225.3681294488679,3.278476758682105e-09
102,233.315719369884,3.6251415819942722e-09
103,241.54358044438416,3.988789226835571e-09
104,250.06159641357056,4.369076056325781e-09
105,258.8799995654878,4.7656123892467314e-09
106,268.0093830345799,5.1779332046123735e-09
107,277.4607135162203,5.605464551227167e-09
108,287.24534444791794,6.0474875109842705e-09
109,297.3750296435931,6.503101664145714e-09
110,307.8619374162986,6.971190085040884e-09
111,318.7186651921057,7.4503879588635316e-09
112,329.95825464781103,7.93905694573464e-09
113,341.5942073683803,8.435267394997943e-09
114,353.6405010758323,8.936790401658393e-09
115,366.1116064132348,9.441101459102077e-09
116,379.02250433143456,9.945397078817918e-09
117,392.3887040798788,1.0446625203223957e-08
118,406.22626184642996,1.0941529541856123e-08
119,420.5518000325669,1.1426707136781947e-08
120,435.382527232,1.1898677562241724e-08
121,450.7362588963753,1.2353961246590047e-08
122,466.631438739768,1.2789163565613975e-08
123,483.0871608887683,1.3201060685592873e-08
124,500.1231928257805,1.3586682734456694e-08
125,517.7599991323361,1.3943389824705004e-08
126,536.0187660691598,1.426893679040429e-08
127,554.9214270324406,1.4561523219986244e-08
128,574.4906888944753,1.481982640383101e-08
129,594.7500592858256,1.5043016055177718e-08
130,615.7238748312366,1.523075095886878e-08
131,637.437330385572,1.5383158907509446e-08
132,659.9165092942615,1.5500802270470988e-08
133,683.1884147367606,1.5584632226759983e-08
134,707.2810021516646,1.5635935040723876e-08
135,732.2232128264696,1.5656273789797057e-08
136,758.0450086628691,1.564742871122219e-08
137,784.7774081611182,1.5611338899250777e-08
138,812.4525236928599,1.5550047533389546e-08
139,841.1036000651338,1.546565222329608e-08
140,870.765054464,1.5360261484392662e-08
141,901.4725177927506,1.523595784383239e-08
142,933.2628774781754,1.509476765288862e-08
143,966.1743217761763,1.4938637352048048e-08
144,1000.246385651561,1.4769415702807704e-08
145,1035.5199982646723,1.4588841351234321e-08
146,1072.0375321396803,1.43985350138822e-08
147,1109.8428540648813,1.4199995556121614e-08
148,1148.9813777903112,1.3994599255818601e-08
149,1189.5001185730118,1.3783601595099681e-08
150,1231.4477496638337,1.3568140991689669e-08
151,1274.8746607697833,1.334924395474515e-08
152,1319.8330185898835,1.3127831229924037e-08
153,1366.3768294762424,1.2904724571188262e-08
154,1414.5620043087713,1.2680653846642354e-08
155,1464.446425647497,1.2456264247493705e-08
156,1516.0900173257382,1.2232123421684776e-08
157,1569.554816319515,1.200872839925853e-08
158,1624.905047388441,1.1786512217000606e-08
159,1682.2072001248252,1.1565850175452276e-08
160,1741.530108928,1.1347065692082733e-08
161,1802.9450355909432,1.1130435728116757e-08
162,1866.5257549617932,1.0916195785813653e-08
163,1932.3486435577945,1.0704544481095226e-08
164,2000.4927713085644,1.0495647705505539e-08
165,2071.0399965239026,1.0289642397227918e-08
166,2144.0750642766393,1.0086639943611292e-08
167,2219.685708132484,9.88672924049183e-09
168,2297.9627555806223,9.689979434343486e-09
169,2379.000237151466,9.496442372940932e-09
170,2462.8954993303887,9.30615479023902e-09
171,2549.7493215395666,9.11914024940833e-09
172,2639.6660371743246,8.935410867951409e-09
173,2732.753658952485,8.75496884545661e-09
174,2829.124008603937,8.577807815009861e-09
175,2928.8928513086,8.403914036305445e-09
176,3032.1800346514765,8.233267447350147e-09
177,3139.10963263903,8.06584259035291e-09
178,3249.8100947632765,7.901609425572012e-09
179,3364.4144002632565,7.74053404565608e-09
180,3483.060217856,7.582579301892016e-09
181,3605.890071168281,7.42770535267096e-09
182,3733.0515099099807,7.2758701426959986e-09
183,3864.6972871019834,7.12702982157115e-09
184,4000.9855426035233,6.981139108633332e-09
185,4142.079993061411,6.838151610557092e-09
186,4288.150128553279,6.69802009731523e-09
187,4439.371416264968,6.5606967417062e-09
188,4595.925511161245,6.4261333265079096e-09
189,4758.000474289327,6.294281423650352e-09
190,4925.790998660777,6.165092548534964e-09
191,5099.498643079133,6.0385182926936094e-09
192,5279.332074362255,5.914510437534682e-09
193,5465.507317891364,5.7930210513058074e-09
194,5658.248017207874,5.674002571721058e-09
195,5857.7857026172,5.557407875743582e-09
196,6064.360069302953,5.443190338418422e-09
197,6278.2192652916665,5.331303881892206e-09
198,6499.620189540159,5.221703016163265e-09
199,6728.828800526513,5.1143428723714574e-09
200,6966.120435712,5.009179229772832e-09
201,7211.780142350168,4.906168537246687e-09
202,7466.103019833567,4.805267929802783e-09
203,7729.394574217573,4.706435241122163e-09
204,8001.971085207047,4.609629012364907e-09
205,8284.159986109216,4.514808497984112e-09
206,8576.300257120163,4.421933668759268e-09
207,8878.74283251633,4.3309652125615504e-09
208,9191.85102232249,4.241864533154431e-09
209,9516.000948578654,4.154593747331125e-09
210,9851.581997307949,4.069115680549394e-09
211,10198.997286158266,3.985393861391685e-09
212,10558.664148710905,3.90339251493473e-09
213,10931.014635782729,3.823076555424955e-09
214,11316.496034429352,3.744411577984947e-09
215,11715.5714052344,3.667363849899439e-09
216,12128.720138592302,3.591900301420109e-09
217,12556.438530569727,3.517988515989844e-09
218,12999.240379080318,3.4455967204229346e-09
219,13457.657601039418,3.37469377462174e-09
220,13932.240871424,3.3052491612621084e-09
221,14423.560284645913,3.2372329752516214e-09
222,14932.206039694345,3.170615913229811e-09
223,15458.789148462356,3.1053692627993347e-09
224,16003.942170468516,3.041464892078237e-09
225,16568.31997219122,2.9788752389634416e-09
226,17152.60051429475,2.917573300709061e-09
227,17757.485664978238,2.8575326232155813e-09
228,18383.702044617767,2.7987272909202773e-09
229,19032.00189721173,2.7411319162416427e-09
230,19703.163994615898,2.684721629489365e-09
231,20397.994572343745,2.629472068849427e-09
232,21117.32829747623,2.575359370331159e-09
233,21862.029271538242,2.522360158051175e-09
234,22632.992068885917,2.470451534581276e-09
235,23431.1428104688,2.4196110713663867e-09
236,24257.440277184603,2.3698167994601602e-09
237,25112.877061193878,2.321047200292484e-09
238,25998.480758187845,2.27328119658664e-09
239,26915.315202106052,2.2264981435286322e-09
240,27864.481742848,2.180677820023306e-09
241,28847.12056942788,2.135800420116869e-09
242,29864.412079252634,2.091846544554689e-09
243,30917.578296788655,2.048797192597163e-09
244,32007.884340800967,2.006633753850555e-09
245,33136.6399445185,1.965338000335501e-09
246,34305.20102845344,1.924892078695079e-09
247,35514.97133009253,1.8852785025843602e-09
248,36767.40408923553,1.846480145104474e-09
249,38064.003794287404,1.8084802315163787e-09
250,39406.327989231795,1.7712623320159709e-09
251,40795.98914468749,1.7348103546501183e-09
252,42234.656594816406,1.6991085384052397e-09
253,43724.058543212544,1.6641414464837907e-09
254,45265.98413777183,1.6298939595777314e-09
255,46862.2856209376,1.5963512693682187e-09
256,48514.88055436921,1.5634988721897758e-09
257,50225.754122251696,1.531322562738577e-09
258,51996.96151623964,1.499808427977636e-09
259,53830.630404212105,1.4689428410865585e-09
260,55728.963485696,1.438712455611972e-09
