,E (eV),I (erg/s/cm**2)
0,6.802851988,0.000695397733367102
1,7.042754045265218,0.0007134879661868537
2,7.2911162302986705,0.000730796821302697
3,7.548236888881904,0.0007466861258694779
4,7.814424887910474,0.0007606902306546548
5,8.0899999864351,0.0007704823098989042
6,8.375293219832324,0.0007787378294377122
7,8.670647297390389,0.0007832390375958853
8,8.976417013977027,0.0007831904698649065
9,9.292969676346978,0.0007777749577074822
10,9.620685544252527,0.0007660221047348575
11,9.95995828726861,0.0007422110041070223
12,10.311195457727088,0.0006917447528123064
13,10.674818980263586,0.000651747748852099
14,11.051265658616357,0.0006010037375117069
15,11.440987700425495,0.0005336523435443204
16,11.844453260345427,0.0004577595738764213
17,12.26214700251832,0.00036808317779518955
18,12.694570682694135,0.00026350731075198465
19,13.142243751017716,0.00014309563273835958
20,13.605703976,4.771116100501562e-06
21,14.085508090503225,4.380406311165573e-06
22,14.582232460651763,4.1616175747218945e-06
23,15.096473777791019,4.011858528652069e-06
24,15.62884977584816,3.91996414022055e-06
25,16.17999997284299,3.876146999269768e-06
26,16.750586439610224,3.871952279355414e-06
27,17.341294594780777,3.9001861680253705e-06
28,17.95283402792684,3.9548240503826256e-06
29,18.585939352639535,4.03090403927905e-06
30,19.241371088450634,4.124410742949659e-06
31,19.91991657459164,4.232153704144187e-06
32,20.622390915454176,4.351644809965019e-06
33,21.349637960472748,4.480979045391724e-06
34,22.102531317205504,4.618722983782984e-06
35,22.8819754008782,4.763815077174196e-06
36,23.688906520663643,4.915480905134831e-06
37,24.52429400500943,5.172791736827153e-06
38,25.389141365333845,5.2364791863408565e-06
39,26.284487502035432,5.405164591371762e-06
40,27.211407952,5.579064709609389e-06
41,28.17101618100645,5.75810418257527e-06
42,29.16446492116747,5.9422700769145975e-06
43,30.192947555582037,6.131592868434073e-06
44,31.25769955156026,6.326126122794401e-06
45,32.35999994582204,6.525918372933228e-06
46,33.50117287935651,6.730996677383782e-06
47,34.682589189561554,6.941322580902369e-06
48,35.90566805598974,7.156801909120343e-06
49,37.171878705415125,7.378591698981973e-06
50,38.48274217703732,7.608676309492451e-06
51,39.83983314904722,7.859499475874049e-06
52,41.24478183090835,7.96722597532452e-06
53,42.69927592108156,8.083317287391976e-06
54,44.20506263441101,8.088391574202568e-06
55,45.76395080162035,7.82104769996359e-06
56,47.377813041327286,7.280151403950921e-06
57,49.04858801001886,6.264690467018793e-06
58,50.778282730803745,4.582840722655586e-06
59,52.568975004070865,2.0097118178458505e-06
60,54.422815904,3.1839913396522553e-12
61,56.342032362148956,3.3610904959271667e-12
62,58.328929842471,4.865174401790149e-12
63,60.38589511102802,7.1319781367965085e-12
64,62.51539910325658,1.0416610740473955e-11
65,64.71999989150801,1.5071545770863523e-11
66,67.00234575871302,2.156324144856422e-11
67,69.36517837912311,3.0491490885746444e-11
68,71.81133611184343,4.2610427174616564e-11
69,74.34375741083025,5.884959833909965e-11
70,76.96548435393859,8.033317219304085e-11
71,79.67966629809445,1.0839512174700894e-10
72,82.4895636618167,1.44588202916156e-10
73,85.39855184202706,1.906847134699948e-10
74,88.41012526895807,2.486674562184274e-10
75,91.52790160337675,3.2071002990529e-10
76,94.75562608279063,4.091464963812903e-10
77,98.09717602017378,5.164315205068553e-10
78,101.55656546147144,6.45093096478034e-10
79,105.13795000814173,7.976807844993004e-10
80,108.845631808,9.767128303428718e-10
81,112.68406472416184,1.1846255450472308e-09
82,116.65785968480594,1.4237279024121463e-09
83,120.77179022205604,1.6961635900374005e-09
84,125.03079820651315,2.003881906165273e-09
85,129.43999978301602,2.348618109050666e-09
86,134.00469151742604,2.7318832150424334e-09
87,138.73035675879046,3.1549628337049867e-09
88,143.62267222395897,3.6189243675378435e-09
89,148.68751482111628,4.1246316930143875e-09
90,153.9309687081493,4.672766184757043e-09
91,159.3593325967331,5.263852597671273e-09
92,164.97912732390552,5.898287890610781e-09
93,170.79710368350987,6.576370616973601e-09
94,176.82025053791614,7.298328117011863e-09
95,183.0558032072977,8.064338511560766e-09
96,189.511252165037,8.874544498821237e-09
97,196.19435204061966,9.729056234407562e-09
98,203.11313092321498,1.0627941124196676e-08
99,210.27590001628346,1.1571199158676403e-08
100,217.691263616,1.2558723376155758e-08
101,225.3681294488679,1.3590246100968867e-08
102,233.315719369884,1.4665272644580952e-08
103,241.54358044438416,1.5783005098691506e-08
104,250.06159641357056,1.6942259600107147e-08
105,258.8799995654878,1.8141380969768136e-08
106,268.0093830345799,1.9378158922928016e-08
107,277.4607135162203,2.0649750165850824e-08
108,287.24534444791794,2.1952610723694755e-08
109,297.3750296435931,2.3282442812970773e-08
110,307.8619374162986,2.4634160517848457e-08
111,318.7186651921057,2.600187837274994e-08
112,329.95825464781103,2.7378926616007837e-08
113,341.5942073683803,2.8757896234908797e-08
114,353.6405010758323,3.0130715907666456e-08
115,366.1116064132348,3.148876151436928e-08
116,379.02250433143456,3.282299710031934e-08
117,392.3887040798788,3.4124144139138973e-08
118,406.22626184642996,3.5382873835884706e-08
119,420.5518000325669,3.659001523632662e-08
120,435.382527232,3.77367702894094e-08
121,450.7362588963753,3.8814925927111865e-08
122,466.631438739768,3.981705285123942e-08
123,483.0871608887683,4.07366811147281e-08
124,500.1231928257805,4.156844380215754e-08
125,517.7599991323361,4.230818202902027e-08
126,536.0187660691598,4.2953006967849217e-08
127,554.9214270324406,4.3501317405524844e-08
128,574.4906888944753,4.395277415400623e-08
129,594.7500592858256,4.4308235224552624e-08
130,615.7238748312366,4.4569657744622854e-08
131,637.437330385572,4.473997402874866e-08
132,659.9165092942615,4.4822949910808226e-08
133,683.1884147367606,4.482303345001128e-08
134,707.2810021516646,4.474520152371376e-08
135,732.2232128264696,4.459481079993491e-08
136,758.0450086628691,4.4377458272112386e-08
137,784.7774081611182,4.40988551428179e-08
138,812.4525236928599,4.376471647429047e-08
139,841.1036000651338,4.338066779011535e-08
140,870.765054464,4.2952168786983275e-08
141,901.4725177927506,4.248445350110774e-08
142,933.2628774781754,4.198248570055344e-08
143,966.1743217761763,4.145092790484808e-08
144,1000.246385651561,4.089412223067845e-08
145,1035.5199982646723,4.031608121509518e-08
146,1072.0375321396803,3.97204868129777e-08
147,1109.8428540648813,3.911069589207418e-08
148,1148.9813777903112,3.8489750711843976e-08
149,1189.5001185730118,3.786039306554946e-08
150,1231.4477496638337,3.722508095978299e-08
151,1274.8746607697833,3.658600689594343e-08
152,1319.8330185898835,3.594511699108401e-08
153,1366.3768294762424,3.530413034060694e-08
154,1414.5620043087713,3.4664558156426807e-08
155,1464.446425647497,3.402772233627837e-08
156,1516.0900173257382,3.339477321809805e-08
157,1569.554816319515,3.2766706346988506e-08
158,1624.905047388441,3.214437816156232e-08
159,1682.2072001248252,3.152852053733476e-08
160,1741.530108928,3.091975418351279e-08
161,1802.9450355909432,3.0318600900431525e-08
162,1866.5257549617932,2.972549474198526e-08
163,1932.3486435577945,2.914079213039948e-08
164,2000.4927713085644,2.8564780985466732e-08
165,2071.0399965239026,2.799768893523331e-08
166,2144.0750642766393,2.7439690677707848e-08
167,2219.685708132484,2.6890914560260865e-08
168,2297.9627555806223,2.6351448448386515e-08
169,2379.000237151466,2.5821344946445645e-08
170,2462.8954993303887,2.5300626031428687e-08
171,2549.7493215395666,2.4789287160693727e-08
172,2639.6660371743246,2.4287300903986527e-08
173,2732.753658952485,2.379462015136791e-08
174,2829.124008603937,2.331118094095499e-08
175,2928.8928513086,2.283690494965162e-08
176,3032.1800346514765,2.2371701681139606e-08
177,3139.10963263903,2.1915470388079876e-08
178,3249.8100947632765,2.146810175629492e-08
179,3364.4144002632565,2.10294793801136e-08
180,3483.060217856,2.0599481051000578e-08
181,3605.890071168281,2.017797988397326e-08
182,3733.0515099099807,1.976484529841702e-08
183,3864.6972871019834,1.9359943871675436e-08
184,4000.9855426035233,1.8963140081345872e-08
185,4142.079993061411,1.8574296948150126e-08
186,4288.150128553279,1.8193276593112145e-08
187,4439.371416264968,1.7819940718338964e-08
188,4595.925511161245,1.7454151020173033e-08
189,4758.000474289327,1.709576954607613e-08
190,4925.790998660777,1.6744658998145004e-08
191,5099.498643079133,1.6400682993016197e-08
192,5279.332074362255,1.6063706282417073e-08
193,5465.507317891364,1.573359493893447e-08
194,5658.248017207874,1.541021651295903e-08
195,5857.7857026172,1.509344016248872e-08
196,6064.360069302953,1.4783136760753906e-08
197,6278.2192652916665,1.4479178984055286e-08
198,6499.620189540159,1.4181441382284387e-08
199,6728.828800526513,1.388980043459572e-08
200,6966.120435712,1.3604134591993527e-08
201,7211.780142350168,1.332432430895714e-08
202,7466.103019833567,1.3050252065077558e-08
203,7729.394574217573,1.2781802378476972e-08
204,8001.971085207047,1.2518861812072251e-08
205,8284.159986109216,1.2261318973491307e-08
206,8576.300257120163,1.2009064509794018e-08
207,8878.74283251633,1.1761991097595909e-08
208,9191.85102232249,1.1519993429456344e-08
209,9516.000948578654,1.1282968196754246e-08
210,9851.581997307949,1.1050814070204505e-08
211,10198.997286158266,1.0823431677520712e-08
212,10558.664148710905,1.0600723579724595e-08
213,10931.014635782729,1.0382594245566194e-08
214,11316.496034429352,1.0168950024619149e-08
215,11715.5714052344,9.95969911944236e-09
216,12128.720138592302,9.754751557097578e-09
217,12556.438530569727,9.554019159717036e-09
218,12999.240379080318,9.357415514905481e-09
219,13457.657601039418,9.164855945482385e-09
220,13932.240871424,8.976257479631847e-09
221,14423.560284645913,8.791538820283306e-09
222,14932.206039694345,8.61062031510168e-09
223,15458.789148462356,8.433423925950434e-09
224,16003.942170468516,8.259873199146714e-09
225,16568.31997219122,8.089893235627639e-09
226,17152.60051429475,7.923410661257232e-09
227,17757.485664978238,7.760353597369473e-09
228,18383.702044617767,7.600651632502167e-09
229,19032.00189721173,7.44423579297473e-09
230,19703.163994615898,7.291038515213304e-09
231,20397.994572343745,7.140993617833174e-09
232,21117.32829747623,6.994036274342069e-09
233,21862.029271538242,6.850102985802955e-09
234,22632.992068885917,6.709131555067576e-09
235,23431.1428104688,6.571061059779507e-09
236,24257.440277184603,6.435831827463634e-09
237,25112.877061193878,6.303385410032278e-09
238,25998.480758187845,6.173664559043696e-09
239,26915.315202106052,6.046613201540005e-09
240,27864.481742848,5.922176416130938e-09
241,28847.12056942788,5.800300409610461e-09
242,29864.412079252634,5.680932494001004e-09
243,30917.578296788655,5.564021064104328e-09
244,32007.884340800967,5.44951557534683e-09
245,33136.6399445185,5.3373665221492336e-09
246,34305.20102845344,5.22752541667904e-09
247,35514.97133009253,5.119944768135682e-09
248,36767.40408923553,5.014578062230564e-09
249,38064.003794287404,4.911379741268338e-09
250,39406.327989231795,4.810305184491467e-09
251,40795.98914468749,4.711310688940715e-09
252,42234.656594816406,4.614353450551251e-09
253,43724.058543212544,4.519391545862191e-09
254,45265.98413777183,4.426383913700113e-09
255,46862.2856209376,4.3352903377471055e-09
256,48514.88055436921,4.246071429003232e-09
257,50225.754122251696,4.158688608869633e-09
258,51996.96151623964,4.073104092506401e-09
259,53830.630404212105,3.989280872474473e-09
260,55728.963485696,3.907182702817756e-09
