,E (eV),I (erg/s/cm**2)
0,6.802851988,0.0006594141381095728
1,7.042754045265218,0.000678942979509819
2,7.2911162302986705,0.0006986598452283406
3,7.548236888881904,0.0007176583060033061
4,7.814424887910474,0.0007355713330442453
5,8.0899999864351,0.0007519212389517349
6,8.375293219832324,0.0007661302316306219
7,8.670647297390389,0.0007775071931332919
8,8.976417013977027,0.0007852364950181914
9,9.292969676346978,0.0007883447186726272
10,9.620685544252527,0.0007820640890646898
11,9.95995828726861,0.0007690822597731607
12,10.311195457727088,0.0007234326082629569
13,10.674818980263586,0.0006907761974359155
14,11.051265658616357,0.0006460524864208705
15,11.440987700425495,0.0005873907604054984
16,11.844453260345427,0.0005127991421210287
17,12.26214700251832,0.0004201907133058672
18,12.694570682694135,0.00030741867240912854
19,13.142243751017716,0.00017231385736965116
20,13.605703976,3.6403781616244058e-06
21,14.085508090503225,3.3578146032656477e-06
22,14.582232460651763,3.182694538841809e-06
23,15.096473777791019,3.062203871034353e-06
24,15.62884977584816,2.987833069652652e-06
25,16.17999997284299,2.952060232998554e-06
26,16.750586439610224,2.948335323068541e-06
27,17.341294594780777,2.97104171105514e-06
28,17.95283402792684,3.0154398783470616e-06
29,18.585939352639535,3.077597648893607e-06
30,19.241371088450634,3.15431075871844e-06
31,19.91991657459164,3.243017145632246e-06
32,20.622390915454176,3.3417081917510005e-06
33,21.349637960472748,3.4488402410614926e-06
34,22.102531317205504,3.5632498661536004e-06
35,22.8819754008782,3.684076324344566e-06
36,23.688906520663643,3.8106941915669535e-06
37,24.52429400500943,3.989841147081226e-06
38,25.389141365333845,4.079660711903258e-06
39,26.284487502035432,4.221501152824929e-06
40,27.211407952,4.36806421320023e-06
41,28.17101618100645,4.519304076074236e-06
42,29.16446492116747,4.675230826202073e-06
43,30.192947555582037,4.83589655467299e-06
44,31.25769955156026,5.0013800051617895e-06
45,32.35999994582204,5.171770337253154e-06
46,33.50117287935651,5.347151950610413e-06
47,34.682589189561554,5.527592628378325e-06
48,35.90566805598974,5.7131354305632654e-06
49,37.171878705415125,5.903824199827864e-06
50,38.48274217703732,6.099504420736883e-06
51,39.83983314904722,6.300188667479151e-06
52,41.24478183090835,6.495009841438032e-06
53,42.69927592108156,6.68198836641184e-06
54,44.20506263441101,6.834277113776258e-06
55,45.76395080162035,6.90178597272585e-06
56,47.377813041327286,6.7891234273522e-06
57,49.04858801001886,6.3305884392123945e-06
58,50.778282730803745,5.262178485820744e-06
59,52.568975004070865,3.1962602202601504e-06
60,54.422815904,3.6852015643490137e-25
61,56.342032362148956,1.409618932709034e-24
62,58.328929842471,1.1217212419615698e-23
63,60.38589511102802,8.316468888291247e-23
64,62.51539910325658,5.674327802735982e-22
65,64.71999989150801,3.5496513096890954e-21
66,67.00234575871302,2.035028653955257e-20
67,69.36517837912311,1.070174501915441e-19
68,71.81133611184343,5.169870445854153e-19
69,74.34375741083025,2.2984438117557e-18
70,76.96548435393859,9.423453258734582e-18
71,79.67966629809445,3.570962939803982e-17
72,82.4895636618167,1.2537396403797365e-16
73,85.39855184202706,4.0886748597775137e-16
74,88.41012526895807,1.2418386528058123e-15
75,91.52790160337675,3.5224634529177735e-15
76,94.75562608279063,9.357180585104464e-15
77,98.09717602017378,2.3345157614693548e-14
78,101.55656546147144,5.485885086021654e-14
79,105.13795000814173,1.21769906463912e-13
80,108.845631808,2.560441189095153e-13
81,112.68406472416184,5.11441077027401e-13
82,116.65785968480594,9.731666706203586e-13
83,120.77179022205604,1.7687655807369925e-12
84,125.03079820651315,3.0789140317073626e-12
85,129.43999978301602,5.14625801074173e-12
86,134.00469151742604,8.280237023262623e-12
87,138.73035675879046,1.2856083925800522e-11
88,143.62267222395897,1.930692270973584e-11
89,148.68751482111628,2.8108973268857974e-11
90,153.9309687081493,3.9761067566609293e-11
91,159.3593325967331,5.4760693332928363e-11
92,164.97912732390552,7.357936967799338e-11
93,170.79710368350987,9.66402091170743e-11
94,176.82025053791614,1.243000648156583e-10
95,183.0558032072977,1.5683784893419697e-10
96,189.511252165037,1.944496415848872e-10
97,196.19435204061966,2.37250285846254e-10
98,203.11313092321498,2.8528042727145296e-10
99,210.27590001628346,3.3851748272383025e-10
100,217.691263616,3.968888252633749e-10
101,225.3681294488679,4.6028551431309283e-10
102,233.315719369884,5.285751207167881e-10
103,241.54358044438416,6.016125233347797e-10
104,250.06159641357056,6.792479208585874e-10
105,258.8799995654878,7.613316574683584e-10
106,268.0093830345799,8.477157695120156e-10
107,277.4607135162203,9.38252406587028e-10
108,287.24534444791794,1.0327894635437354e-09
109,297.3750296435931,1.1311638881212987e-09
110,307.8619374162986,1.2331932156176544e-09
111,318.7186651921057,1.3386659402678702e-09
112,329.95825464781103,1.4473313728689567e-09
113,341.5942073683803,1.5588896613053656e-09
114,353.6405010758323,1.6729826669611961e-09
115,366.1116064132348,1.7891863915833783e-09
116,379.02250433143456,1.9070056317187243e-09
117,392.3887040798788,2.025871490325443e-09
118,406.22626184642996,2.145142290539207e-09
119,420.5518000325669,2.264108302582535e-09
120,435.382527232,2.3820005076728984e-09
121,450.7362588963753,2.4980033807303554e-09
122,466.631438739768,2.61127138769224e-09
123,483.0871608887683,2.7209485844983724e-09
124,500.1231928257805,2.8261904059374498e-09
125,517.7599991323361,2.9261864835332328e-09
126,536.0187660691598,3.0201831723266755e-09
127,554.9214270324406,3.1075044287152756e-09
128,574.4906888944753,3.1875697788468278e-09
129,594.7500592858256,3.259908343990487e-09
130,615.7238748312366,3.3241682151614554e-09
131,637.437330385572,3.3801208537963735e-09
132,659.9165092942615,3.4276605838595675e-09
133,683.1884147367606,3.466799590002266e-09
134,707.2810021516646,3.4976591083259693e-09
135,732.2232128264696,3.5204576712894793e-09
136,758.0450086628691,3.5354973433539516e-09
137,784.7774081611182,3.543148869052616e-09
138,812.4525236928599,3.5438365685781227e-09
139,841.1036000651338,3.5380236826061144e-09
140,870.765054464,3.5261987100039563e-09
141,901.4725177927506,3.5088631201246864e-09
142,933.2628774781754,3.4865206694970324e-09
143,966.1743217761763,3.4596684222225784e-09
144,1000.246385651561,3.4287894681677276e-09
145,1035.5199982646723,3.3943472536867646e-09
146,1072.0375321396803,3.356781386943682e-09
147,1109.8428540648813,3.3165047473513256e-09
148,1148.9813777903112,3.2739017141815527e-09
149,1189.5001185730118,3.229327329310901e-09
150,1231.4477496638337,3.1831072169262992e-09
151,1274.8746607697833,3.135538098292356e-09
152,1319.8330185898835,3.0868887579677774e-09
153,1366.3768294762424,3.037401337494173e-09
154,1414.5620043087713,2.9872928523277206e-09
155,1464.446425647497,2.9367568463776023e-09
156,1516.0900173257382,2.8859651155083616e-09
157,1569.554816319515,2.835069445805678e-09
158,1624.905047388441,2.7842033263282637e-09
159,1682.2072001248252,2.7334836054632544e-09
160,1741.530108928,2.68301207025637e-09
161,1802.9450355909432,2.632876934140607e-09
162,1866.5257549617932,2.5831542252034143e-09
163,1932.3486435577945,2.533909070844998e-09
164,2000.4927713085644,2.4851968783793536e-09
165,2071.0399965239026,2.437064413552523e-09
166,2144.0750642766393,2.3895507808958664e-09
167,2219.685708132484,2.3426883105411147e-09
168,2297.9627555806223,2.296503357646437e-09
169,2379.000237151466,2.2510170203508337e-09
170,2462.8954993303887,2.2062457825609947e-09
171,2549.7493215395666,2.162202087992463e-09
172,2639.6660371743246,2.11889485147189e-09
173,2732.753658952485,2.076329913339209e-09
174,2829.124008603937,2.034510442522302e-09
175,2928.8928513086,1.993437293440608e-09
176,3032.1800346514765,1.9531093213171486e-09
177,3139.10963263903,1.9135236605764386e-09
178,3249.8100947632765,1.8746759700303183e-09
179,3364.4144002632565,1.8365606486828343e-09
180,3483.060217856,1.7991710252711453e-09
181,3605.890071168281,1.7624995246744303e-09
182,3733.0515099099807,1.7265378136846401e-09
183,3864.6972871019834,1.6912769286200323e-09
184,4000.9855426035233,1.6567073868228035e-09
185,4142.079993061411,1.6228192840545392e-09
186,4288.150128553279,1.589602379266671e-09
187,4439.371416264968,1.5570461685119683e-09
188,4595.925511161245,1.5251399490754682e-09
189,4758.000474289327,1.493872875124592e-09
190,4925.790998660777,1.4632340059033297e-09
191,5099.498643079133,1.4332123473104987e-09
192,5279.332074362255,1.4037968878418412e-09
193,5465.507317891364,1.374976629377306e-09
194,5658.248017207874,1.34674061363193e-09
195,5857.7857026172,1.3190779447192276e-09
196,6064.360069302953,1.2919778083404367e-09
197,6278.2192652916665,1.265429488054574e-09
198,6499.620189540159,1.2394223789435654e-09
199,6728.828800526513,1.2139459990617788e-09
200,6966.120435712,1.1889899989145526e-09
201,7211.780142350168,1.1645441692489473e-09
202,7466.103019833567,1.1405984473530827e-09
203,7729.394574217573,1.1171429220873629e-09
204,8001.971085207047,1.0941678377847773e-09
205,8284.159986109216,1.0716635972043375e-09
206,8576.300257120163,1.049620763632265e-09
207,8878.74283251633,1.0280300622744252e-09
208,9191.85102232249,1.0068823810198219e-09
209,9516.000948578654,9.861687706859948e-10
210,9851.581997307949,9.65880444777667e-10
211,10198.997286158266,9.460087788944711e-10
212,10558.664148710905,9.26545309754197e-10
213,10931.014635782729,9.074817339878665e-10
214,11316.496034429352,8.888099066527789e-10
215,11715.5714052344,8.705218395633966e-10
216,12128.720138592302,8.526096994599759e-10
217,12556.438530569727,8.350658060198203e-10
218,12999.240379080318,8.17882629772508e-10
219,13457.657601039418,8.010527899226205e-10
220,13932.240871424,7.845690520742852e-10
221,14423.560284645913,7.684243259439474e-10
222,14932.206039694345,7.526116630108817e-10
223,15458.789148462356,7.371242540884746e-10
224,16003.942170468516,7.219554269836876e-10
225,16568.31997219122,7.070986440316386e-10
226,17152.60051429475,6.925474997373489e-10
227,17757.485664978238,6.782957182907534e-10
228,18383.702044617767,6.643371512450748e-10
229,19032.00189721173,6.506657750847593e-10
230,19703.163994615898,6.372756888486146e-10
231,20397.994572343745,6.241611118334114e-10
232,21117.32829747623,6.113163812363664e-10
233,21862.029271538242,5.987359498765007e-10
234,22632.992068885917,5.864143839396082e-10
235,23431.1428104688,5.743463607307905e-10
236,24257.440277184603,5.625266664968988e-10
237,25112.877061193878,5.509501942530581e-10
238,25998.480758187845,5.396119416497189e-10
239,26915.315202106052,5.285070088906814e-10
240,27864.481742848,5.176305966620527e-10
241,28847.12056942788,5.069780041200563e-10
242,29864.412079252634,4.965446268920431e-10
243,30917.578296788655,4.863259551389819e-10
244,32007.884340800967,4.763175716281666e-10
245,33136.6399445185,4.665151498591831e-10
246,34305.20102845344,4.5691445221555943e-10
247,35514.97133009253,4.47511328161257e-10
248,36767.40408923553,4.3830171246039015e-10
249,38064.003794287404,4.29281623438325e-10
250,39406.327989231795,4.2044716127594656e-10
251,40795.98914468749,4.1179450633430885e-10
252,42234.656594816406,4.0331991751345415e-10
253,43724.058543212544,3.9501973065288315e-10
254,45265.98413777183,3.8689035694317777e-10
255,46862.2856209376,3.789282813913751e-10
256,48514.88055436921,3.711300613038028e-10
257,50225.754122251696,3.634923248033302e-10
258,51996.96151623964,3.5601176937565717e-10
259,53830.630404212105,3.4868516044788026e-10
260,55728.963485696,3.415093299916268e-10
