,E (eV),I (erg/s/cm**2)
0,6.802851988,0.0004689845545364225
1,7.042754045265218,0.00048600900241056396
2,7.2911162302986705,0.0005037617619804062
3,7.548236888881904,0.0005206370244571737
4,7.814424887910474,0.0005381735686625307
5,8.0899999864351,0.0005526657579330708
6,8.375293219832324,0.0005678134622755695
7,8.670647297390389,0.0005818134522576693
8,8.976417013977027,0.0005940324369854242
9,9.292969676346978,0.000604114537157609
10,9.620685544252527,0.0006106823864207775
11,9.95995828726861,0.0006088472950587938
12,10.311195457727088,0.0005786982841460637
13,10.674818980263586,0.0005620196444090501
14,11.051265658616357,0.0005354128264741094
15,11.440987700425495,0.000496640240510886
16,11.844453260345427,0.0004431091744806734
17,12.26214700251832,0.00037123056320276585
18,12.694570682694135,0.00027876692815589416
19,13.142243751017716,0.00016143628052269147
20,13.605703976,1.8464384278974104e-06
21,14.085508090503225,1.7246745095863422e-06
22,14.582232460651763,1.6389097932440568e-06
23,15.096473777791019,1.5805604092729295e-06
24,15.62884977584816,1.5456490974998934e-06
25,16.17999997284299,1.530599901993314e-06
26,16.750586439610224,1.5322500660538705e-06
27,17.341294594780777,1.547848410342103e-06
28,17.95283402792684,1.5750425266392859e-06
29,18.585939352639535,1.611856972010297e-06
30,19.241371088450634,1.6566643977477538e-06
31,19.91991657459164,1.708151341126006e-06
32,20.622390915454176,1.765280341825868e-06
33,21.349637960472748,1.8272501313017276e-06
34,22.102531317205504,1.893455805922941e-06
35,22.8819754008782,1.9634510014736646e-06
36,23.688906520663643,2.0369139904689853e-06
37,24.52429400500943,2.1181493986983058e-06
38,25.389141365333845,2.193415149943438e-06
39,26.284487502035432,2.2762081601174986e-06
40,27.211407952,2.361951730827856e-06
41,28.17101618100645,2.45063896389386e-06
42,29.16446492116747,2.5422965982986252e-06
43,30.192947555582037,2.636978740382587e-06
44,31.25769955156026,2.734759288502821e-06
45,32.35999994582204,2.835723017278367e-06
46,33.50117287935651,2.9399562788574407e-06
47,34.682589189561554,3.0475389598045543e-06
48,35.90566805598974,3.1585394475832813e-06
49,37.171878705415125,3.2730138827161587e-06
50,38.48274217703732,3.3910100772761533e-06
51,39.83983314904722,3.5125744380596716e-06
52,41.24478183090835,3.637670647904695e-06
53,42.69927592108156,3.7660924818840677e-06
54,44.20506263441101,3.896386723797416e-06
55,45.76395080162035,4.02234496004255e-06
56,47.377813041327286,4.121750087516321e-06
57,49.04858801001886,4.126455369881122e-06
58,50.778282730803745,3.854420097568427e-06
59,52.568975004070865,2.87739421807637e-06
60,54.422815904,1.9458734832206094e-43
61,56.342032362148956,1.5644591196281635e-41
62,58.328929842471,1.3867117331418625e-39
63,60.38589511102802,1.0001741994392096e-37
64,62.51539910325658,5.826399543510813e-36
65,64.71999989150801,2.742476689221211e-34
66,67.00234575871302,1.0469361705152574e-32
67,69.36517837912311,3.2583955667225636e-31
68,71.81133611184343,8.318032543399112e-30
69,74.34375741083025,1.753178194091828e-28
70,76.96548435393859,3.072120681141147e-27
71,79.67966629809445,4.508102316921139e-26
72,82.4895636618167,5.580996978715416e-25
73,85.39855184202706,5.873044367371155e-24
74,88.41012526895807,5.2935027328615886e-23
75,91.52790160337675,4.117610719888181e-22
76,94.75562608279063,2.7850963890044143e-21
77,98.09717602017378,1.650269679895871e-20
78,101.55656546147144,8.628884503524589e-20
79,105.13795000814173,4.0098399432880734e-19
80,108.845631808,1.6675082756939986e-18
81,112.68406472416184,6.246979265265654e-18
82,116.65785968480594,2.121842035572586e-17
83,120.77179022205604,6.574418259425344e-17
84,125.03079820651315,1.8691313373535082e-16
85,129.43999978301602,4.903120720314948e-16
86,134.00469151742604,1.1930098358414476e-15
87,138.73035675879046,2.7059657871961746e-15
88,143.62267222395897,5.7485825194261656e-15
89,148.68751482111628,1.1489598939534823e-14
90,153.9309687081493,2.1697012395661214e-14
91,159.3593325967331,3.886862984675226e-14
92,164.97912732390552,6.630883668608786e-14
93,170.79710368350987,1.0812017761362795e-13
94,176.82025053791614,1.6909144218905126e-13
95,183.0558032072977,2.544842941907028e-13
96,189.511252165037,3.697421474216122e-13
97,196.19435204061966,5.201613672969535e-13
98,203.11313092321498,7.105714015310726e-13
99,210.27590001628346,9.45066168722375e-13
100,217.691263616,1.226816449852604e-12
101,225.3681294488679,1.5579765288420015e-12
102,233.315719369884,1.9396823437995598e-12
103,241.54358044438416,2.372126076707929e-12
104,250.06159641357056,2.854684815282745e-12
105,258.8799995654878,3.386078555102214e-12
106,268.0093830345799,3.964534345005513e-12
107,277.4607135162203,4.587937442878576e-12
108,287.24534444791794,5.25395564593645e-12
109,297.3750296435931,5.960128466544156e-12
110,307.8619374162986,6.703917867219054e-12
111,318.7186651921057,7.482721473239688e-12
112,329.95825464781103,8.293852424909535e-12
113,341.5942073683803,9.134492344233222e-12
114,353.6405010758323,1.0001625400269358e-11
115,366.1116064132348,1.0891962309031222e-11
116,379.02250433143456,1.1801863436969683e-11
117,392.3887040798788,1.272727007450603e-11
118,406.22626184642996,1.3663652440476416e-11
119,420.5518000325669,1.4605982046768196e-11
120,435.382527232,1.5548734642171293e-11
121,450.7362588963753,1.6485928012254662e-11
122,466.631438739768,1.741119645177543e-11
123,483.0871608887683,1.8317900819376002e-11
124,500.1231928257805,1.919926996567334e-11
125,517.7599991323361,2.0048566281342183e-11
126,536.0187660691598,2.0859265557048613e-11
127,554.9214270324406,2.162523963315268e-11
128,574.4906888944753,2.2340929745037184e-11
129,594.7500592858256,2.300149916779116e-11
130,615.7238748312366,2.3602955630878657e-11
131,637.437330385572,2.4142236776494822e-11
132,659.9165092942615,2.4617255240279967e-11
133,683.1884147367606,2.5026903319754116e-11
134,707.2810021516646,2.5371020226423066e-11
135,732.2232128264696,2.565032730191491e-11
136,758.0450086628691,2.5866338133563874e-11
137,784.7774081611182,2.6021251208160307e-11
138,812.4525236928599,2.6117832675824644e-11
139,841.1036000651338,2.6159296136508612e-11
140,870.765054464,2.6149185276763995e-11
141,901.4725177927506,2.6091263915926086e-11
142,933.2628774781754,2.5989416680303426e-11
143,966.1743217761763,2.5847562291807582e-11
144,1000.246385651561,2.5669580372970517e-11
145,1035.5199982646723,2.545925180232629e-11
146,1072.0375321396803,2.522021200015007e-11
147,1109.8428540648813,2.4955916076534988e-11
148,1148.9813777903112,2.4669614501908665e-11
149,1189.5001185730118,2.436433783558316e-11
150,1231.4477496638337,2.4042889032528166e-11
151,1274.8746607697833,2.3707841911201214e-11
152,1319.8330185898835,2.336154448246303e-11
153,1366.3768294762424,2.300612598191827e-11
154,1414.5620043087713,2.264350660690547e-11
155,1464.446425647497,2.227540911515135e-11
156,1516.0900173257382,2.190337159237667e-11
157,1569.554816319515,2.1528760827623507e-11
158,1624.905047388441,2.115278586488378e-11
159,1682.2072001248252,2.077651138961445e-11
160,1741.530108928,2.0400870709397732e-11
161,1802.9450355909432,2.0026678148079856e-11
162,1866.5257549617932,1.965464074156596e-11
163,1932.3486435577945,1.9285369161097274e-11
164,2000.4927713085644,1.8919387831742077e-11
165,2071.0399965239026,1.855714423788818e-11
166,2144.0750642766393,1.819901743012609e-11
167,2219.685708132484,1.7845325760308602e-11
168,2297.9627555806223,1.7496333883540196e-11
169,2379.000237151466,1.715225907167088e-11
170,2462.8954993303887,1.6813276884336856e-11
171,2549.7493215395666,1.6479526249473626e-11
172,2639.6660371743246,1.6151113999913977e-11
173,2732.753658952485,1.5828118916067484e-11
174,2829.124008603937,1.5510595318696936e-11
175,2928.8928513086,1.5198576257763026e-11
176,3032.1800346514765,1.4892076334082865e-11
177,3139.10963263903,1.4591094195287536e-11
178,3249.8100947632765,1.4295614738285194e-11
179,3364.4144002632565,1.4005611049584933e-11
180,3483.060217856,1.3721046113658985e-11
181,3605.890071168281,1.3441874313886537e-11
182,3733.0515099099807,1.3168042749729453e-11
183,3864.6972871019834,1.2899492392109947e-11
184,4000.9855426035233,1.263615909391268e-11
185,4142.079993061411,1.2377974473891587e-11
186,4288.150128553279,1.2124866688522309e-11
187,4439.371416264968,1.1876761105130218e-11
188,4595.925511161245,1.163358088740789e-11
189,4758.000474289327,1.1395247505127767e-11
190,4925.790998660777,1.1161681175997952e-11
191,5099.498643079133,1.093280124870561e-11
192,5279.332074362255,1.0708526534157273e-11
193,5465.507317891364,1.0488775590985465e-11
194,5658.248017207874,1.027346697147938e-11
195,5857.7857026172,1.0062519432585207e-11
196,6064.360069302953,9.855852116176049e-12
197,6278.2192652916665,9.653384702931306e-12
198,6499.620189540159,9.455037542788798e-12
199,6728.828800526513,9.260731764975395e-12
200,6966.120435712,9.070389370354806e-12
201,7211.780142350168,8.883933308428176e-12
202,7466.103019833567,8.701287540545653e-12
203,7729.394574217573,8.522377091790794e-12
204,8001.971085207047,8.347128092444413e-12
205,8284.159986109216,8.175467810685335e-12
206,8576.300257120163,8.007324677609459e-12
207,8878.74283251633,7.842628305693356e-12
208,9191.85102232249,7.681309501419889e-12
209,9516.000948578654,7.523300273178858e-12
210,9851.581997307949,7.368533834587177e-12
211,10198.997286158266,7.216944604509888e-12
212,10558.664148710905,7.06846820382264e-12
213,10931.014635782729,6.923041449327339e-12
214,11316.496034429352,6.7806023457442165e-12
215,11715.5714052344,6.6410900754774625e-12
216,12128.720138592302,6.50444498701397e-12
217,12556.438530569727,6.370608581844126e-12
218,12999.240379080318,6.239523500161034e-12
219,13457.657601039418,6.111133505907936e-12
220,13932.240871424,5.985383470743571e-12
221,14423.560284645913,5.862219357756395e-12
222,14932.206039694345,5.741588204504742e-12
223,15458.789148462356,5.623438105523958e-12
224,16003.942170468516,5.5077181951523735e-12
225,16568.31997219122,5.394378629381859e-12
226,17152.60051429475,5.283370568464539e-12
227,17757.485664978238,5.174646158601247e-12
228,18383.702044617767,5.068158514511395e-12
229,19032.00189721173,4.963861701270852e-12
230,19703.163994615898,4.861710716760777e-12
231,20397.994572343745,4.761661474158132e-12
232,21117.32829747623,4.663670784345006e-12
233,21862.029271538242,4.567696338740952e-12
234,22632.992068885917,4.473696692311207e-12
235,23431.1428104688,4.38163124655064e-12
236,24257.440277184603,4.291460233072015e-12
237,25112.877061193878,4.203144697103817e-12
238,25998.480758187845,4.11664648138511e-12
239,26915.315202106052,4.0319282103255594e-12
240,27864.481742848,3.948953274350182e-12
241,28847.12056942788,3.867685814565299e-12
242,29864.412079252634,3.78809070764151e-12
243,30917.578296788655,3.710133551003276e-12
244,32007.884340800967,3.6337806482826202e-12
245,33136.6399445185,3.5589989949598636e-12
246,34305.20102845344,3.485756264359043e-12
247,35514.97133009253,3.4140207939295405e-12
248,36767.40408923553,3.343761571652492e-12
249,38064.003794287404,3.274948222854334e-12
250,39406.327989231795,3.207550997145377e-12
251,40795.98914468749,3.1415407557113327e-12
252,42234.656594816406,3.0768889588063906e-12
253,43724.058543212544,3.0135676535279955e-12
254,45265.98413777183,2.9515494617710135e-12
255,46862.2856209376,2.890807568448639e-12
256,48514.88055436921,2.8313157100323183e-12
257,50225.754122251696,2.7730481631259014e-12
258,51996.96151623964,2.715979733518282e-12
259,53830.630404212105,2.6600857452257488e-12
260,55728.963485696,2.605342029874741e-12
