,E (eV),I (erg/s/cm**2)
0,6.802851988,0.00047482030095933605
1,7.042754045265218,0.0004920594296916955
2,7.2911162302986705,0.0005100359935233848
3,7.548236888881904,0.03646932798381018
4,7.814424887910474,0.0005419871129140439
5,8.0899999864351,0.0005576622601002455
6,8.375293219832324,0.0005725443040419182
7,8.670647297390389,0.0005852451097817456
8,8.976417013977027,0.0005968127525360262
9,9.292969676346978,0.0006060445166614527
10,9.620685544252527,0.0006115867562138112
11,9.95995828726861,0.0006102931606326059
12,10.311195457727088,0.000578881424079086
13,10.674818980263586,0.000560953163643825
14,11.051265658616357,0.0005329269413565842
15,11.440987700425495,0.0004925624266908925
16,11.844453260345427,0.00043282828324852675
17,12.26214700251832,0.0003587501269115413
18,12.694570682694135,0.0002636876605802709
19,13.142243751017716,0.00014364504506961397
20,13.605703976,1.950900919793224e-06
21,14.085508090503225,1.761990205781903e-06
22,14.582232460651763,1.6741154282813433e-06
23,15.096473777791019,1.6142844025177126e-06
24,15.62884977584816,1.5784192838503001e-06
25,16.17999997284299,1.5628557615090313e-06
26,16.750586439610224,1.5643545759468952e-06
27,17.341294594780777,1.5800992759690185e-06
28,17.95283402792684,1.6076826084714182e-06
29,18.585939352639535,1.6450837802025313e-06
30,19.241371088450634,1.6906385732070907e-06
31,19.91991657459164,1.7430040828454181e-06
32,20.622390915454176,1.8011197763624316e-06
33,21.349637960472748,1.8641666533224861e-06
34,22.102531317205504,1.9315264500248364e-06
35,22.8819754008782,2.002742933657276e-06
36,23.688906520663643,2.0774872313172985e-06
37,24.52429400500943,2.2288273234084607e-06
38,25.389141365333845,2.23671238918785e-06
39,26.284487502035432,2.3209422949618732e-06
40,27.211407952,2.4081705255144004e-06
41,28.17101618100645,2.498389481113205e-06
42,29.16446492116747,2.5916257335132257e-06
43,30.192947555582037,2.6879336119768244e-06
44,31.25769955156026,2.7873874877196703e-06
45,32.35999994582204,2.8900727200422667e-06
46,33.50117287935651,2.9960762314901655e-06
47,34.682589189561554,3.1054783656080874e-06
48,35.90566805598974,3.2183477828989286e-06
49,37.171878705415125,3.3347405247741225e-06
50,38.48274217703732,3.4547021799378e-06
51,39.83983314904722,3.5782641479461326e-06
52,41.24478183090835,3.70527766519823e-06
53,42.69927592108156,3.83500786416504e-06
54,44.20506263441101,3.96374281263876e-06
55,45.76395080162035,4.077256813729934e-06
56,47.377813041327286,4.1039620028116185e-06
57,49.04858801001886,3.910274726237846e-06
58,50.778282730803745,3.1139624763438573e-06
59,52.568975004070865,9.029663722029661e-07
60,54.422815904,2.3510161849581896e-41
61,56.342032362148956,3.4950351663013907e-41
62,58.328929842471,2.951575381854933e-39
63,60.38589511102802,2.0344105547805113e-37
64,62.51539910325658,1.1357942053089575e-35
65,64.71999989150801,5.137581624173166e-34
66,67.00234575871302,1.8896257893639957e-32
67,69.36517837912311,5.680254087855568e-31
68,71.81133611184343,1.4038072206160757e-29
69,74.34375741083025,2.8707618542023206e-28
70,76.96548435393859,4.891057026889422e-27
71,79.67966629809445,6.992130899453185e-26
72,82.4895636618167,8.448645540660379e-25
73,85.39855184202706,8.692765464647191e-24
74,88.41012526895807,7.673090972480117e-23
75,91.52790160337675,5.854275798167678e-22
76,94.75562608279063,3.889500464601234e-21
77,98.09717602017378,2.2668252566507434e-20
78,101.55656546147144,1.1672717227249542e-19
79,105.13795000814173,5.348181679147516e-19
80,108.845631808,2.1952382247897364e-18
81,112.68406472416184,8.125653430244075e-18
82,116.65785968480594,2.7295138721986913e-17
83,120.77179022205604,8.371331775170686e-17
84,125.03079820651315,2.357742630622236e-16
85,129.43999978301602,6.131661678877011e-16
86,134.00469151742604,1.480148565488376e-15
87,138.73035675879046,3.3329173189136934e-15
88,143.62267222395897,7.033465141321791e-15
89,148.68751482111628,1.3972260346842297e-14
90,153.9309687081493,2.6238844936179323e-14
91,159.3593325967331,4.676713740719303e-14
92,164.97912732390552,7.941612495070678e-14
93,170.79710368350987,1.2895102122688234e-13
94,176.82025053791614,2.009057188252737e-13
95,183.0558032072977,3.013309035505961e-13
96,189.511252165037,4.3645661639982454e-13
97,196.19435204061966,6.123159362943021e-13
98,203.11313092321498,8.343829108625258e-13
99,210.27590001628346,1.1072721403502986e-12
100,217.691263616,1.4345325800612437e-12
101,225.3681294488679,1.8185492303539909e-12
102,233.315719369884,2.2605483905882784e-12
103,241.54358044438416,2.760688492066012e-12
104,250.06159641357056,3.318210635100078e-12
105,258.8799995654878,3.931620618777123e-12
106,268.0093830345799,4.598876251256282e-12
107,277.4607135162203,5.317558499685247e-12
108,287.24534444791794,6.085011119958117e-12
109,297.3750296435931,6.898439659189222e-12
110,307.8619374162986,7.75496640415181e-12
111,318.7186651921057,8.651642556525869e-12
112,329.95825464781103,9.585422527963272e-12
113,341.5942073683803,1.0553107815004921e-11
114,353.6405010758323,1.1551269589837221e-11
115,366.1116064132348,1.2576160093232181e-11
116,379.02250433143456,1.3623623300926631e-11
117,392.3887040798788,1.468901522808153e-11
118,406.22626184642996,1.5767143680819943e-11
119,420.5518000325669,1.6852236211164315e-11
120,435.382527232,1.7937943425465886e-11
121,450.7362588963753,1.9017382572644456e-11
122,466.631438739768,2.0083223509664833e-11
123,483.0871608887683,2.1127815798585885e-11
124,500.1231928257805,2.214335208932384e-11
125,517.7599991323361,2.3122059433223283e-11
126,536.0187660691598,2.4056407213038172e-11
127,554.9214270324406,2.4939318386966484e-11
128,574.4906888944753,2.576437007858836e-11
129,594.7500592858256,2.6525970329149526e-11
130,615.7238748312366,2.721949998805655e-11
131,637.437330385572,2.7841411938121312e-11
132,659.9165092942615,2.838928368280654e-11
133,683.1884147367606,2.8861823225105623e-11
134,707.2810021516646,2.92588316817642e-11
135,732.2232128264696,2.9581128835620053e-11
136,758.0450086628691,2.983044962959744e-11
137,784.7774081611182,3.000932042541453e-11
138,812.4525236928599,3.012092378205025e-11
139,841.1036000651338,3.0168959732850504e-11
140,870.765054464,3.0157510318143654e-11
141,901.4725177927506,3.009091262843391e-11
142,933.2628774781754,2.997364410058097e-11
143,966.1743217761763,2.981022235669079e-11
144,1000.246385651561,2.960512063971123e-11
145,1035.5199982646723,2.936269888847971e-11
146,1072.0375321396803,2.9087149739388637e-11
147,1109.8428540648813,2.878245822461531e-11
148,1148.9813777903112,2.8452373622683195e-11
149,1189.5001185730118,2.810039177019248e-11
150,1231.4477496638337,2.772974612762156e-11
151,1274.8746607697833,2.734340596313446e-11
152,1319.8330185898835,2.694408015335953e-11
153,1366.3768294762424,2.653422526449383e-11
154,1414.5620043087713,2.6116056760286808e-11
155,1464.446425647497,2.5691562362857588e-11
156,1516.0900173257382,2.5262516767124053e-11
157,1569.554816319515,2.4830497060163743e-11
158,1624.905047388441,2.43968983460872e-11
159,1682.2072001248252,2.3962949183881404e-11
160,1741.530108928,2.3529726557928494e-11
161,1802.9450355909432,2.309817017413953e-11
162,1866.5257549617932,2.266909595073379e-11
163,1932.3486435577945,2.224320861961678e-11
164,2000.4927713085644,2.1821113398835066e-11
165,2071.0399965239026,2.1403326728236495e-11
166,2144.0750642766393,2.099028608422408e-11
167,2219.685708132484,2.0582358903565245e-11
168,2297.9627555806223,2.017985066262511e-11
169,2379.000237151466,1.97830121612522e-11
170,2462.8954993303887,1.9392046066589457e-11
171,2549.7493215395666,1.9007112774974673e-11
172,2639.6660371743246,1.8628335646580754e-11
173,2732.753658952485,1.8255805669826153e-11
174,2829.124008603937,1.7889585607485505e-11
175,2928.8928513086,1.7529713675488757e-11
176,3032.1800346514765,1.7176206799992707e-11
177,3139.10963263903,1.682906349631856e-11
178,3249.8100947632765,1.648826641097923e-11
179,3364.4144002632565,1.6153784560758246e-11
180,3483.060217856,1.582557530375987e-11
181,3605.890071168281,1.5503586071266864e-11
182,3733.0515099099807,1.518775588852174e-11
183,3864.6972871019834,1.4878016706916064e-11
184,4000.9855426035233,1.45742945704495e-11
185,4142.079993061411,1.427651063618057e-11
186,4288.150128553279,1.3984582064519695e-11
187,4439.371416264968,1.3698422795564032e-11
188,4595.925511161245,1.3417944225960947e-11
189,4758.000474289327,1.31430557957787e-11
190,4925.790998660777,1.2873665499378097e-11
191,5099.498643079133,1.2609680326974557e-11
192,5279.332074362255,1.2351006647051346e-11
193,5465.507317891364,1.209755053578302e-11
194,5658.248017207874,1.1849218060947311e-11
195,5857.7857026172,1.1605915525300108e-11
196,6064.360069302953,1.136754967472938e-11
197,6278.2192652916665,1.1134027875751829e-11
198,6499.620189540159,1.09052582661775e-11
199,6728.828800526513,1.0681149881997054e-11
200,6966.120435712,1.0461612764075346e-11
201,7211.780142350168,1.0246558046879851e-11
202,7466.103019833567,1.0035898031642481e-11
203,7729.394574217573,9.829546246044845e-12
204,8001.971085207047,9.627417492257281e-12
205,8284.159986109216,9.429427884531381e-12
206,8576.300257120163,9.23549487827877e-12
207,8878.74283251633,9.045537291159681e-12
208,9191.85102232249,8.85947531800458e-12
209,9516.000948578654,8.677230539507313e-12
210,9851.581997307949,8.498725926564572e-12
211,10198.997286158266,8.323885839851487e-12
212,10558.664148710905,8.152636026405709e-12
213,10931.014635782729,7.98490361258037e-12
214,11316.496034429352,7.820617094643263e-12
215,11715.5714052344,7.65970632733311e-12
216,12128.720138592302,7.502102510033259e-12
217,12556.438530569727,7.347738172040391e-12
218,12999.240379080318,7.1965471559787084e-12
219,13457.657601039418,7.048464600467966e-12
220,13932.240871424,6.903426921873162e-12
221,14423.560284645913,6.761371795114778e-12
222,14932.206039694345,6.622238134593166e-12
223,15458.789148462356,6.485966073668632e-12
224,16003.942170468516,6.352496944968103e-12
225,16568.31997219122,6.221773259473582e-12
226,17152.60051429475,6.0937386865031976e-12
227,17757.485664978238,5.9683380324499255e-12
228,18383.702044617767,5.845517220797111e-12
229,19032.00189721173,5.725223271165659e-12
230,19703.163994615898,5.607404279027781e-12
231,20397.994572343745,5.492009395526056e-12
232,21117.32829747623,5.378988807209371e-12
233,21862.029271538242,5.2682937161923784e-12
234,22632.992068885917,5.15987632060683e-12
235,23431.1428104688,5.0536897949507105e-12
236,24257.440277184603,4.949688271133029e-12
237,25112.877061193878,4.847826819499873e-12
238,25998.480758187845,4.74806143020458e-12
239,26915.315202106052,4.650348994972417e-12
240,27864.481742848,4.554647289041617e-12
241,28847.12056942788,4.460914953472528e-12
242,29864.412079252634,4.3691114776505114e-12
243,30917.578296788655,4.279197182375138e-12
244,32007.884340800967,4.191133202851187e-12
245,33136.6399445185,4.1048814723339745e-12
246,34305.20102845344,4.02040470585905e-12
247,35514.97133009253,3.937666384443659e-12
248,36767.40408923553,3.856630739440542e-12
249,38064.003794287404,3.777262737242678e-12
250,39406.327989231795,3.699528064350816e-12
251,40795.98914468749,3.6233931126213986e-12
252,42234.656594816406,3.548824964849768e-12
253,43724.058543212544,3.475791380698067e-12
254,45265.98413777183,3.4042607827787252e-12
255,46862.2856209376,3.3342022430975713e-12
256,48514.88055436921,3.265585469782726e-12
257,50225.754122251696,3.1983807939794717e-12
258,51996.96151623964,3.132559157152491e-12
259,53830.630404212105,3.0680920985135574e-12
260,55728.963485696,3.0049517427183705e-12
