,E (eV),I (erg/s/cm**2)
0,6.802851988,0.0004395675527770624
1,7.042754045265218,0.0004555118230384178
2,7.2911162302986705,0.00047214326362293875
3,7.548236888881904,0.000489509877675428
4,7.814424887910474,0.0342500357592652
5,8.0899999864351,0.0005191726725231483
6,8.375293219832324,0.0005335031366128098
7,8.670647297390389,0.0005467877872753901
8,8.976417013977027,0.0005573256613959489
9,9.292969676346978,0.000566747731473571
10,9.620685544252527,0.0005728214107849028
11,9.95995828726861,0.0005730045993657355
12,10.311195457727088,0.000544035947920541
13,10.674818980263586,0.0005281244277463231
14,11.051265658616357,0.0005026580260333476
15,11.440987700425495,0.0004654282010466842
16,11.844453260345427,0.00041386049409995366
17,12.26214700251832,0.0003392439042784074
18,12.694570682694135,0.000248559620313089
19,13.142243751017716,0.00013357275136114592
20,13.605703976,1.7055880941061043e-06
21,14.085508090503225,1.5418529058960316e-06
22,14.582232460651763,1.4666052153389047e-06
23,15.096473777791019,1.415665494479866e-06
24,15.62884977584816,1.3855513261903806e-06
25,16.17999997284299,1.3731222703984734e-06
26,16.750586439610224,1.3755933226623577e-06
27,17.341294594780777,1.3905360753161258e-06
28,17.95283402792684,1.4158696274146227e-06
29,18.585939352639535,1.449843174468081e-06
30,19.241371088450634,1.4910119963830974e-06
31,19.91991657459164,1.538208385468503e-06
32,20.622390915454176,1.5905090024154405e-06
33,21.349637960472748,1.6472002319081146e-06
34,22.102531317205504,1.7077432634934917e-06
35,22.8819754008782,1.7717407301499586e-06
36,23.688906520663643,1.838906664287263e-06
37,24.52429400500943,1.9736604546611666e-06
38,25.389141365333845,1.9820107173332643e-06
39,26.284487502035432,2.0577336747585423e-06
40,27.211407952,2.1361707985015876e-06
41,28.17101618100645,2.2173185818597574e-06
42,29.16446492116747,2.3012040397380207e-06
43,30.192947555582037,2.3878792291404795e-06
44,31.25769955156026,2.4774145616536324e-06
45,32.35999994582204,2.5698908360764006e-06
46,33.50117287935651,2.6653908245693007e-06
47,34.682589189561554,2.763991885975921e-06
48,35.90566805598974,2.865761213363325e-06
49,37.171878705415125,2.9707548442590024e-06
50,38.48274217703732,3.0790202374724395e-06
51,39.83983314904722,3.1905981980739045e-06
52,41.24478183090835,3.305451902825672e-06
53,42.69927592108156,3.4232169752132134e-06
54,44.20506263441101,3.5416882765117923e-06
55,45.76395080162035,3.651192553684909e-06
56,47.377813041327286,3.7162854592226775e-06
57,49.04858801001886,3.5635888397356984e-06
58,50.778282730803745,2.8928078963363342e-06
59,52.568975004070865,8.607065448132342e-07
60,54.422815904,1.6828301775405815e-43
61,56.342032362148956,2.806597712800832e-43
62,58.328929842471,3.165820426286541e-41
63,60.38589511102802,2.862149949796893e-39
64,62.51539910325658,2.0602346659915457e-37
65,64.71999989150801,1.1820819445078457e-35
66,67.00234575871302,5.429875104720439e-34
67,69.36517837912311,2.008612475548818e-32
68,71.81133611184343,6.023784303920353e-31
69,74.34375741083025,1.4751495409862952e-29
70,76.96548435393859,2.9722095128442603e-28
71,79.67966629809445,4.9658617391709e-27
72,82.4895636618167,6.935089512860845e-26
73,85.39855184202706,8.16142072691294e-25
74,88.41012526895807,8.159526890248027e-24
75,91.52790160337675,6.98664638938657e-23
76,94.75562608279063,5.164913295380117e-22
77,98.09717602017378,3.322614286968912e-21
78,101.55656546147144,1.874473565973566e-20
79,105.13795000814173,9.343992951633034e-20
80,108.845631808,4.1457975438957217e-19
81,112.68406472416184,1.6487711275530446e-18
82,116.65785968480594,5.917255187821477e-18
83,120.77179022205604,1.92880899829884e-17
84,125.03079820651315,5.745601211263597e-17
85,129.43999978301602,1.5732351892743165e-16
86,134.00469151742604,3.9816801076702413e-16
87,138.73035675879046,9.363285983661732e-16
88,143.62267222395897,2.0560420749262784e-15
89,148.68751482111628,4.235603251469698e-15
90,153.9309687081493,8.222602383711045e-15
91,159.3593325967331,1.5105916831398707e-14
92,164.97912732390552,2.6367661268690092e-14
93,170.79710368350987,4.389778320902652e-14
94,176.82025053791614,6.995870257392989e-14
95,183.0558032072977,1.0709667112446778e-13
96,189.511252165037,1.580077985621195e-13
97,196.19435204061966,2.253764864714596e-13
98,203.11313092321498,3.1170942034299063e-13
99,210.27590001628346,4.191880675259572e-13
100,217.691263616,5.495575176556845e-13
101,225.3681294488679,7.040615139370073e-13
102,233.315719369884,8.834250416123834e-13
103,241.54358044438416,1.0878787677432815e-12
104,250.06159641357056,1.3172149925760846e-12
105,258.8799995654878,1.5708627545395442e-12
106,268.0093830345799,1.8479699245729335e-12
107,277.4607135162203,2.1474818546322222e-12
108,287.24534444791794,2.46820871500343e-12
109,297.3750296435931,2.808876481719977e-12
110,307.8619374162986,3.168159210757885e-12
111,318.7186651921057,3.5446925168285418e-12
112,329.95825464781103,3.937069960776787e-12
113,341.5942073683803,4.343825339377245e-12
114,353.6405010758323,4.763404723342402e-12
115,366.1116064132348,5.194132583633618e-12
116,379.02250433143456,5.634176558323435e-12
117,392.3887040798788,6.081515389249906e-12
118,406.22626184642996,6.533914320509276e-12
119,420.5518000325669,6.988911786465575e-12
120,435.382527232,7.443820507455239e-12
121,450.7362588963753,7.895745135028305e-12
122,466.631438739768,8.341617359196701e-12
123,483.0871608887683,8.778247959622858e-12
124,500.1231928257805,9.202393760514412e-12
125,517.7599991323361,9.610835988773357e-12
126,536.0187660691598,1.0000465321355343e-11
127,554.9214270324406,1.0368368113645372e-11
128,574.4906888944753,1.0711908055867866e-11
129,594.7500592858256,1.1028797859881681e-11
130,615.7238748312366,1.131715649007966e-11
131,637.437330385572,1.1575548791124151e-11
132,659.9165092942615,1.1803005940314488e-11
133,683.1884147367606,1.1999026751935652e-11
134,707.2810021516646,1.2163561291968465e-11
135,732.2232128264696,1.229697938046282e-11
136,758.0450086628691,1.2400027285415796e-11
137,784.7774081611182,1.2473776236317102e-11
138,812.4525236928599,1.251956634888842e-11
139,841.1036000651338,1.2538949229735618e-11
140,870.765054464,1.2533632020616432e-11
141,901.4725177927506,1.2505425029702616e-11
142,933.2628774781754,1.245619446989447e-11
143,966.1743217761763,1.2387821233826253e-11
144,1000.246385651561,1.2302166125383698e-11
145,1035.5199982646723,1.2201041555057763e-11
146,1072.0375321396803,1.2086189397954262e-11
147,1109.8428540648813,1.195926450135158e-11
148,1148.9813777903112,1.1821823200773307e-11
149,1189.5001185730118,1.167531614515639e-11
150,1231.4477496638337,1.1521084725594508e-11
151,1274.8746607697833,1.136036043161812e-11
152,1319.8330185898835,1.1194266516000754e-11
153,1366.3768294762424,1.102382141686854e-11
154,1414.5620043087713,1.0849943461338353e-11
155,1464.446425647497,1.0673456449712668e-11
156,1516.0900173257382,1.0495095790756066e-11
157,1569.554816319515,1.0315514921103082e-11
158,1624.905047388441,1.0135291803495442e-11
159,1682.2072001248252,9.954935342015753e-12
160,1741.530108928,9.774891599955434e-12
161,1802.9450355909432,9.595549734221818e-12
162,1866.5257549617932,9.417247594252485e-12
163,1932.3486435577945,9.240276949354857e-12
164,2000.4927713085644,9.064888330580725e-12
165,2071.0399965239026,8.891295482240336e-12
166,2144.0750642766393,8.719679431434066e-12
167,2219.685708132484,8.550192187379906e-12
168,2297.9627555806223,8.382960090326832e-12
169,2379.000237151466,8.218086830665189e-12
170,2462.8954993303887,8.055656160605303e-12
171,2549.7493215395666,7.895734323462403e-12
172,2639.6660371743246,7.738372222852552e-12
173,2732.753658952485,7.583607355172315e-12
174,2829.124008603937,7.431465527577655e-12
175,2928.8928513086,7.281962382156935e-12
176,3032.1800346514765,7.135104745106506e-12
177,3139.10963263903,6.990891819739597e-12
178,3249.8100947632765,6.8493162392339555e-12
179,3364.4144002632565,6.710364994339345e-12
180,3483.060217856,6.574020249727925e-12
181,3605.890071168281,6.440260061617498e-12
182,3733.0515099099807,6.309059007398282e-12
183,3864.6972871019834,6.1803887375900086e-12
184,4000.9855426035233,6.0542184590494875e-12
185,4142.079993061411,5.93051535744514e-12
186,4288.150128553279,5.8092449660514035e-12
187,4439.371416264968,5.690371487501182e-12
188,4595.925511161245,5.573858073586633e-12
189,4758.000474289327,5.459667068891119e-12
190,4925.790998660777,5.347760221928637e-12
191,5099.498643079133,5.238098868178737e-12
192,5279.332074362255,5.130644088393848e-12
193,5465.507317891364,5.025356845024969e-12
194,5658.248017207874,4.922198099716467e-12
195,5857.7857026172,4.821128914073319e-12
196,6064.360069302953,4.722110535907871e-12
197,6278.2192652916665,4.625104472619148e-12
198,6499.620189540159,4.530072553584256e-12
199,6728.828800526513,4.436976982683655e-12
200,6966.120435712,4.345780382436078e-12
201,7211.780142350168,4.2564458306565665e-12
202,7466.103019833567,4.168936890806549e-12
203,7729.394574217573,4.08321763662773e-12
204,8001.971085207047,3.999252671923333e-12
205,8284.159986109216,3.917007146192972e-12
206,8576.300257120163,3.836446766624858e-12
207,8878.74283251633,3.757537806716958e-12
208,9191.85102232249,3.680247112427129e-12
209,9516.000948578654,3.6045421057971417e-12
210,9851.581997307949,3.530390786647426e-12
211,10198.997286158266,3.457761732428593e-12
212,10558.664148710905,3.3866240966888993e-12
213,10931.014635782729,3.3169476061501756e-12
214,11316.496034429352,3.2487025568108145e-12
215,11715.5714052344,3.1818598090727793e-12
216,12128.720138592302,3.1163907821228267e-12
217,12556.438530569727,3.0522674476557427e-12
218,12999.240379080318,2.9894623230552404e-12
219,13457.657601039418,2.9279484641446606e-12
220,13932.240871424,2.867699457594988e-12
221,14423.560284645913,2.808689413004902e-12
222,14932.206039694345,2.7508929548430305e-12
223,15458.789148462356,2.6942852140363724e-12
224,16003.942170468516,2.6388418196944235e-12
225,16568.31997219122,2.584538890531874e-12
226,17152.60051429475,2.531353026380455e-12
227,17757.485664978238,2.4792612994983477e-12
228,18383.702044617767,2.4282412462167934e-12
229,19032.00189721173,2.378270858197846e-12
230,19703.163994615898,2.329328574058781e-12
231,20397.994572343745,2.2813932709544136e-12
232,21117.32829747623,2.2344442561557117e-12
233,21862.029271538242,2.1884612588297888e-12
234,22632.992068885917,2.1434244218826522e-12
235,23431.1428104688,2.0993142938479237e-12
236,24257.440277184603,2.056111820938428e-12
237,25112.877061193878,2.01379833923491e-12
238,25998.480758187845,1.972355566903641e-12
239,26915.315202106052,1.931765596628997e-12
240,27864.481742848,1.8920108881214298e-12
241,28847.12056942788,1.8530742607318925e-12
242,29864.412079252634,1.814938886261551e-12
243,30917.578296788655,1.77758828184192e-12
244,32007.884340800967,1.7410063029321476e-12
245,33136.6399445185,1.7051771365120048e-12
246,34305.20102845344,1.6700852942950962e-12
247,35514.97133009253,1.6357156062020903e-12
248,36767.40408923553,1.6020532138445914e-12
249,38064.003794287404,1.5690835641913505e-12
250,39406.327989231795,1.5367924033027639e-12
251,40795.98914468749,1.5051657702930841e-12
252,42234.656594816406,1.4741899912573682e-12
253,43724.058543212544,1.4438516734903846e-12
254,45265.98413777183,1.4141376996641557e-12
255,46862.2856209376,1.3850352222130908e-12
256,48514.88055436921,1.3565316578246803e-12
257,50225.754122251696,1.3286146819915428e-12
258,51996.96151623964,1.3012722237202097e-12
259,53830.630404212105,1.2744924603321565e-12
260,55728.963485696,1.2482638123490861e-12
