,E (eV),I (erg/s/cm**2)
0,6.802851988,0.0002625823949702596
1,7.042754045265218,0.000272080017796289
2,7.2911162302986705,0.000281990740329964
3,7.548236888881904,0.00029234868249328205
4,7.814424887910474,0.0003031902286360356
5,8.0899999864351,0.00031455975266060534
6,8.375293219832324,0.00032588427235044203
7,8.670647297390389,0.0008221764826827649
8,8.976417013977027,0.0003425282984806836
9,9.292969676346978,0.00034994130564569543
10,9.620685544252527,0.00035557622549763003
11,9.95995828726861,0.0003567634091794936
12,10.311195457727088,0.00033985163354979987
13,10.674818980263586,0.0003316683789926256
14,11.051265658616357,0.00031744358862821685
15,11.440987700425495,0.0002956160310005928
16,11.844453260345427,0.00026432664400758235
17,12.26214700251832,0.00022138137155024582
18,12.694570682694135,0.0001642126760328951
19,13.142243751017716,8.984152655216748e-05
20,13.605703976,8.480746259456088e-07
21,14.085508090503225,7.80726040022148e-07
22,14.582232460651763,7.457821666312665e-07
23,15.096473777791019,7.227273596698001e-07
24,15.62884977584816,7.099416159303406e-07
25,16.17999997284299,7.059465122939585e-07
26,16.750586439610224,7.094171084432155e-07
27,17.341294594780777,7.191873085961341e-07
28,17.95283402792684,7.342496202736745e-07
29,18.585939352639535,7.537502228141172e-07
30,19.241371088450634,7.769801759588501e-07
31,19.91991657459164,8.033635297737243e-07
32,20.622390915454176,8.324430889773698e-07
33,21.349637960472748,8.638646471265546e-07
34,22.102531317205504,8.9736060647223e-07
35,22.8819754008782,9.327339760077329e-07
36,23.688906520663643,9.6984372348227e-07
37,24.52429400500943,1.0288467493965307e-06
38,25.389141365333845,1.0489158037452849e-06
39,26.284487502035432,1.0907769440468424e-06
40,27.211407952,1.1341602686987998e-06
41,28.17101618100645,1.1790690644136662e-06
42,29.16446492116747,1.2255229202261822e-06
43,30.192947555582037,1.273555136584754e-06
44,31.25769955156026,1.3232094309310806e-06
45,32.35999994582204,1.3745358556991961e-06
46,33.50117287935651,1.4275863353455583e-06
47,34.682589189561554,1.4824105997451544e-06
48,35.90566805598974,1.5390534069508751e-06
49,37.171878705415125,1.5975537450469798e-06
50,38.48274217703732,1.6579462182001966e-06
51,39.83983314904722,1.7202641825696194e-06
52,41.24478183090835,1.7845405526121058e-06
53,42.69927592108156,1.8507941694826178e-06
54,44.20506263441101,1.9188797909990886e-06
55,45.76395080162035,1.9875785039599597e-06
56,47.377813041327286,2.050128201374332e-06
57,49.04858801001886,2.0763449204878713e-06
58,50.778282730803745,1.953599689960536e-06
59,52.568975004070865,1.3244022546486035e-06
60,54.422815904,2.8613453401023615e-50
61,56.342032362148956,4.641724062153127e-49
62,58.328929842471,1.1481186065417006e-46
63,60.38589511102802,2.161514588926051e-44
64,62.51539910325658,3.086052871953953e-42
65,64.71999989150801,3.3539714407663364e-40
66,67.00234575871302,2.793916544773169e-38
67,69.36517837912311,1.798714367124645e-36
68,71.81133611184343,9.03069638009607e-35
69,74.34375741083025,3.569430174617352e-33
70,76.96548435393859,1.1215750265883673e-31
71,79.67966629809445,2.829572549592073e-30
72,82.4895636618167,5.789325076228709e-29
73,85.39855184202706,9.703054571070226e-28
74,88.41012526895807,1.3455476371616194e-26
75,91.52790160337675,1.5591487267541686e-25
76,94.75562608279063,1.5243643159005533e-24
77,98.09717602017378,1.2694721143653443e-23
78,101.55656546147144,9.088611036717821e-23
79,105.13795000814173,5.644021010455851e-22
80,108.845631808,3.0664071885116054e-21
81,112.68406472416184,1.469605593944043e-20
82,116.65785968480594,6.262109508289916e-20
83,120.77179022205604,2.3902559997152584e-19
84,125.03079820651315,8.231187527654224e-19
85,129.43999978301602,2.574559689309098e-18
86,134.00469151742604,7.36098614344236e-18
87,138.73035675879046,1.935441676229916e-17
88,143.62267222395897,4.706624366044615e-17
89,148.68751482111628,1.0642972255633852e-16
90,153.9309687081493,2.249324761641565e-16
91,159.3593325967331,4.464489016274941e-16
92,164.97912732390552,8.360031772933764e-16
93,170.79710368350987,1.4833611583894256e-15
94,176.82025053791614,2.5042743830802884e-15
95,183.0558032072977,4.0384836734660476e-15
96,189.511252165037,6.244199676018553e-15
97,196.19435204061966,9.289540423249234e-15
98,203.11313092321498,1.334207960024336e-14
99,210.27590001628346,1.8558037609950725e-14
100,217.691263616,2.50726424726712e-14
101,225.3681294488679,3.2992846939741647e-14
102,233.315719369884,4.239305290786442e-14
103,241.54358044438416,5.331392842145226e-14
104,250.06159641357056,6.576393534902611e-14
105,258.8799995654878,7.972288479897814e-14
106,268.0093830345799,9.514671188947e-14
107,277.4607135162203,1.119726823209328e-13
108,287.24534444791794,1.3012436413722277e-13
109,297.3750296435931,1.495158723390638e-13
110,307.8619374162986,1.7005508316638133e-13
111,318.7186651921057,1.9164569206991124e-13
112,329.95825464781103,2.141881387254969e-13
113,341.5942073683803,2.3757953718402945e-13
114,353.6405010758323,2.6171282908623413e-13
115,366.1116064132348,2.8647542607609e-13
116,379.02250433143456,3.117476292720629e-13
117,392.3887040798788,3.37401113466039e-13
118,406.22626184642996,3.6329774537695505e-13
119,420.5518000325669,3.892889707801858e-13
120,435.382527232,4.152159561628375e-13
121,450.7362588963753,4.4091060736078334e-13
122,466.631438739768,4.6619751298381e-13
123,483.0871608887683,4.908967777048303e-13
124,500.1231928257805,5.14827626334793e-13
125,517.7599991323361,5.378125818236342e-13
126,536.0187660691598,5.59681958272603e-13
127,554.9214270324406,5.802783720614119e-13
128,574.4906888944753,5.994609658646959e-13
129,594.7500592858256,6.171090637361823e-13
130,615.7238748312366,6.331250271522399e-13
131,637.437330385572,6.474361550673786e-13
132,659.9165092942615,6.59995555164749e-13
133,683.1884147367606,6.707819978256001e-13
134,707.2810021516646,6.797988387878209e-13
135,732.2232128264696,6.870721539901042e-13
136,758.0450086628691,6.926482665774014e-13
137,784.7774081611182,6.965908614085059e-13
138,812.4525236928599,6.989778788224673e-13
139,841.1036000651338,6.998983609710609e-13
140,870.765054464,6.994493961469214e-13
141,901.4725177927506,6.977332733206952e-13
142,933.2628774781754,6.948549254663973e-13
143,966.1743217761763,6.909197087657437e-13
144,1000.246385651561,6.860315376486321e-13
145,1035.5199982646723,6.802913738396014e-13
146,1072.0375321396803,6.737960513664768e-13
147,1109.8428540648813,6.666374084327827e-13
148,1148.9813777903112,6.589016904751918e-13
149,1189.5001185730118,6.5066918585142e-13
150,1231.4477496638337,6.420140554814554e-13
151,1274.8746607697833,6.330043196498465e-13
152,1319.8330185898835,6.237019681481998e-13
153,1366.3768294762424,6.141631640029061e-13
154,1414.5620043087713,6.044385149388586e-13
155,1464.446425647497,5.945733909441576e-13
156,1516.0900173257382,5.846082702031511e-13
157,1569.554816319515,5.745790989784446e-13
158,1624.905047388441,5.645176545056675e-13
159,1682.2072001248252,5.544519021704232e-13
160,1741.530108928,5.444063409641164e-13
161,1802.9450355909432,5.34402332588508e-13
162,1866.5257549617932,5.24458411487884e-13
163,1932.3486435577945,5.14590574045754e-13
164,2000.4927713085644,5.048125461212606e-13
165,2071.0399965239026,4.951360288795867e-13
166,2144.0750642766393,4.855709233397642e-13
167,2219.685708132484,4.761255344015648e-13
168,2297.9627555806223,4.668067554441912e-13
169,2379.000237151466,4.576202346690345e-13
170,2462.8954993303887,4.4857052447313293e-13
171,2549.7493215395666,4.396612151932672e-13
172,2639.6660371743246,4.3089505451362833e-13
173,2732.753658952485,4.222740538251382e-13
174,2829.124008603937,4.137995827329441e-13
175,2928.8928513086,4.054724529074901e-13
176,3032.1800346514765,3.9729299228589655e-13
177,3139.10963263903,3.8926111067100656e-13
178,3249.8100947632765,3.8137635761954927e-13
179,3364.4144002632565,3.736379734344232e-13
180,3483.060217856,3.660449340389762e-13
181,3605.890071168281,3.585959904196272e-13
182,3733.0515099099807,3.5128970321667426e-13
183,3864.6972871019834,3.441244730602678e-13
184,4000.9855426035233,3.3709856711283027e-13
185,4142.079993061411,3.3021014227378714e-13
186,4288.150128553279,3.2345726544182155e-13
187,4439.371416264968,3.1683793117449706e-13
188,4595.925511161245,3.1035007706139147e-13
189,4758.000474289327,3.0399159709235924e-13
190,4925.790998660777,2.9776035325115705e-13
191,5099.498643079133,2.9165418555362465e-13
192,5279.332074362255,2.856709207416619e-13
193,5465.507317891364,2.798083797585719e-13
194,5658.248017207874,2.7406438419916e-13
195,5857.7857026172,2.684367618288646e-13
196,6064.360069302953,2.6292335131065397e-13
197,6278.2192652916665,2.5752200622199313e-13
198,6499.620189540159,2.5223059847650433e-13
199,6728.828800526513,2.4704702119303007e-13
200,6966.120435712,2.4196919110507103e-13
201,7211.780142350168,2.369950505766045e-13
202,7466.103019833567,2.321225692362226e-13
203,7729.394574217573,2.273497453359272e-13
204,8001.971085207047,2.2267460682364287e-13
205,8284.159986109216,2.180952121859201e-13
206,8576.300257120163,2.1360965109507526e-13
207,8878.74283251633,2.092160448784194e-13
208,9191.85102232249,2.0491254684098113e-13
209,9516.000948578654,2.0069734245516472e-13
210,9851.581997307949,1.9656864944178962e-13
211,10198.997286158266,1.925247177540843e-13
212,10558.664148710905,1.885638294807001e-13
213,10931.014635782729,1.8468429867882968e-13
214,11316.496034429352,1.8088447114759385e-13
215,11715.5714052344,1.771627241523297e-13
216,12128.720138592302,1.7351746610481956e-13
217,12556.438530569727,1.6994713621132032e-13
218,12999.240379080318,1.6645020408775158e-13
219,13457.657601039418,1.6302516935349116e-13
220,13932.240871424,1.5967056120499328e-13
221,14423.560284645913,1.5638493797183428e-13
222,14932.206039694345,1.5316688666721475e-13
223,15458.789148462356,1.500150225165064e-13
224,16003.942170468516,1.4692798849509667e-13
225,16568.31997219122,1.4390445484868982e-13
226,17152.60051429475,1.4094311862164048e-13
227,17757.485664978238,1.3804270316804833e-13
228,18383.702044617767,1.3520195768854752e-13
229,19032.00189721173,1.3241965674378177e-13
230,19703.163994615898,1.296945997832733e-13
231,20397.994572343745,1.2702561067815685e-13
232,21117.32829747623,1.244115372536933e-13
233,21862.029271538242,1.2185125082837872e-13
234,22632.992068885917,1.1934364576075117e-13
235,23431.1428104688,1.1688763899405936e-13
236,24257.440277184603,1.1448216962117908e-13
237,25112.877061193878,1.1212619843900979e-13
238,25998.480758187845,1.098187075241156e-13
239,26915.315202106052,1.075586998058351e-13
240,27864.481742848,1.0534519865000589e-13
241,28847.12056942788,1.0317724744942965e-13
242,29864.412079252634,1.0105390921945895e-13
243,30917.578296788655,9.897426620672276e-14
244,32007.884340800967,9.693741949564968e-14
245,33136.6399445185,9.494248862792763e-14
246,34305.20102845344,9.298861122917474e-14
247,35514.97133009253,9.107494264188262e-14
248,36767.40408923553,8.92006555632489e-14
249,38064.003794287404,8.73649396929452e-14
250,39406.327989231795,8.556700138535306e-14
251,40795.98914468749,8.380606330972627e-14
252,42234.656594816406,8.208136411669834e-14
253,43724.058543212544,8.039215811266459e-14
254,45265.98413777183,7.873771493711313e-14
255,46862.2856209376,7.71173192503341e-14
256,48514.88055436921,7.55302704251959e-14
257,50225.754122251696,7.397588224523878e-14
258,51996.96151623964,7.245348260964342e-14
259,53830.630404212105,7.096241324310109e-14
260,55728.963485696,6.950202941214593e-14
