,E (eV),I (erg/s/cm**2)
0,6.802851988,0.00020198842027271952
1,7.042754045265218,0.0002092890610278
2,7.2911162302986705,0.00021690747368317834
3,7.548236888881904,0.0002248702559186829
4,7.814424887910474,0.0002332043588172612
5,8.0899999864351,0.00024194865313064516
6,8.375293219832324,0.0002511383754287254
7,8.670647297390389,0.1205541510963226
8,8.976417013977027,0.0002656139224162562
9,9.292969676346978,0.0002718127225210298
10,9.620685544252527,0.00027673521320988504
11,9.95995828726861,0.0002784913862708203
12,10.311195457727088,0.00026605079209952046
13,10.674818980263586,0.0002605675520803185
14,11.051265658616357,0.0002504974856513065
15,11.440987700425495,0.00023461048975519832
16,11.844453260345427,0.00021143123351434885
17,12.26214700251832,0.00017920817199938387
18,12.694570682694135,0.0001358805048187383
19,13.142243751017716,7.90449552796747e-05
20,13.605703976,6.4420763385951e-07
21,14.085508090503225,5.805789550437183e-07
22,14.582232460651763,5.552204024874414e-07
23,15.096473777791019,5.386219531465667e-07
24,15.62884977584816,5.29604024401654e-07
25,16.17999997284299,5.270871095403862e-07
26,16.750586439610224,5.30101393821012e-07
27,17.341294594780777,5.377914911098252e-07
28,17.95283402792684,5.494169766216116e-07
29,18.585939352639535,5.643493736136943e-07
30,19.241371088450634,5.820661922681125e-07
31,19.91991657459164,6.021425706270541e-07
32,20.622390915454176,6.242410673618091e-07
33,21.349637960472748,6.481002117105421e-07
34,22.102531317205504,6.735225019015288e-07
35,22.8819754008782,7.003626117715842e-07
36,23.688906520663643,7.285165607866829e-07
37,24.52429400500943,7.884688772278309e-07
38,25.389141365333845,7.885033995123529e-07
39,26.284487502035432,8.202620302467619e-07
40,27.211407952,8.531774038320396e-07
41,28.17101618100645,8.872526476537678e-07
42,29.16446492116747,9.225032774377427e-07
43,30.192947555582037,9.589553200502606e-07
44,31.25769955156026,9.966428479376822e-07
45,32.35999994582204,1.035604860878431e-06
46,33.50117287935651,1.0758818352179748e-06
47,34.682589189561554,1.1175125537017041e-06
48,35.90566805598974,1.1605319248392995e-06
49,37.171878705415125,1.2049703445615906e-06
50,38.48274217703732,1.25085476915715e-06
51,39.83983314904722,1.2982110665859573e-06
52,41.24478183090835,1.3470643189197142e-06
53,42.69927592108156,1.3974195160619402e-06
54,44.20506263441101,1.4490815035569106e-06
55,45.76395080162035,1.500542090997358e-06
56,47.377813041327286,1.5434751893695334e-06
57,49.04858801001886,1.5406347906040833e-06
58,50.778282730803745,1.3529002780095606e-06
59,52.568975004070865,5.393556607473473e-07
60,54.422815904,3.516207636995003e-50
61,56.342032362148956,3.4628938642020448e-50
62,58.328929842471,9.912534071130163e-48
63,60.38589511102802,2.1376587597921325e-45
64,62.51539910325658,3.462379550134883e-43
65,64.71999989150801,4.2303925536880877e-41
66,67.00234575871302,3.928101777986101e-39
67,69.36517837912311,2.7964487988223543e-37
68,71.81133611184343,1.5409504066243022e-35
69,74.34375741083025,6.638151897469953e-34
70,76.96548435393859,2.258484351108144e-32
71,79.67966629809445,6.131995275325339e-31
72,82.4895636618167,1.3425664163656173e-29
73,85.39855184202706,2.395252933204426e-28
74,88.41012526895807,3.5184341706121714e-27
75,91.52790160337675,4.2990495678943224e-26
76,94.75562608279063,4.413473630520014e-25
77,98.09717602017378,3.8444097052506366e-24
78,101.55656546147144,2.868485412862384e-23
79,105.13795000814173,1.8503030584423293e-22
80,108.845631808,1.040977142817206e-21
81,112.68406472416184,5.151411663102148e-21
82,116.65785968480594,2.2605194284732843e-20
83,120.77179022205604,8.863925757203877e-20
84,125.03079820651315,3.1285846575687514e-19
85,129.43999978301602,1.0008611052024196e-18
86,134.00469151742604,2.9210650337590932e-18
87,138.73035675879046,7.825850841550992e-18
88,143.62267222395897,1.9358787645128468e-17
89,148.68751482111628,4.4460560829950017e-17
90,153.9309687081493,9.529841427955139e-17
91,159.3593325967331,1.9158140498150017e-16
92,164.97912732390552,3.629187165063336e-16
93,170.79710368350987,6.507017590576978e-16
94,176.82025053791614,1.1089284935500868e-15
95,183.0558032072977,1.803498978321323e-15
96,189.511252165037,2.8097894961629592e-15
97,196.19435204061966,4.208682634584984e-15
98,203.11313092321498,6.081574928497245e-15
99,210.27590001628346,8.505094803779522e-15
100,217.691263616,1.1546288268612278e-14
101,225.3681294488679,1.5258882848653588e-14
102,233.315719369884,1.9680986646095614e-14
103,241.54358044438416,2.4834300350538095e-14
104,250.06159641357056,3.072468257195227e-14
105,258.8799995654878,3.734375044854781e-14
106,268.0093830345799,4.4671126006510885e-14
107,277.4607135162203,5.267694152462501e-14
108,287.24534444791794,6.1324271884477e-14
109,297.3750296435931,7.057124507171623e-14
110,307.8619374162986,8.037267404808275e-14
111,318.7186651921057,9.068114021108535e-14
112,329.95825464781103,1.014475324276237e-13
113,341.5942073683803,1.1262110264798934e-13
114,353.6405010758323,1.24149139159561e-13
115,366.1116064132348,1.3597638319556528e-13
116,379.02250433143456,1.480443262628902e-13
117,392.3887040798788,1.602905263373222e-13
118,406.22626184642996,1.726480727731065e-13
119,420.5518000325669,1.85045313308577e-13
120,435.382527232,1.974059328535807e-13
121,450.7362588963753,2.0964944313446835e-13
122,466.631438739768,2.216921062954919e-13
123,483.0871608887683,2.3344827582945954e-13
124,500.1231928257805,2.448320980611466e-13
125,517.7599991323361,2.557594805286718e-13
126,536.0187660691598,2.661502044673298e-13
127,554.9214270324406,2.759300409586284e-13
128,574.4906888944753,2.850327268955374e-13
129,594.7500592858256,2.9340166838682197e-13
130,615.7238748312366,3.009912640755605e-13
131,637.437330385572,3.0776777560449357e-13
132,659.9165092942615,3.137097122999533e-13
133,683.1884147367606,3.1880773683229126e-13
134,707.2810021516646,3.2306413355217663e-13
135,732.2232128264696,3.264919080377647e-13
136,758.0450086628691,3.291136032906872e-13
137,784.7774081611182,3.309599249240605e-13
138,812.4525236928599,3.3206826574028656e-13
139,841.1036000651338,3.324812111975427e-13
140,870.765054464,3.322450939512355e-13
141,901.4725177927506,3.314086499191264e-13
142,933.2628774781754,3.3002181248763094e-13
143,966.1743217761763,3.2813466654068465e-13
144,1000.246385651561,3.2579657136230925e-13
145,1035.5199982646723,3.230554511495624e-13
146,1072.0375321396803,3.199572443889545e-13
147,1109.8428540648813,3.165454980646251e-13
148,1148.9813777903112,3.128610897829519e-13
149,1189.5001185730118,3.0894205946497575e-13
150,1231.4477496638337,3.0482353231140563e-13
151,1274.8746607697833,3.005377156058197e-13
152,1319.8330185898835,2.961139534467667e-13
153,1366.3768294762424,2.9157882529860123e-13
154,1414.5620043087713,2.869562762328663e-13
155,1464.446425647497,2.822677686477306e-13
156,1516.0900173257382,2.775324471205204e-13
157,1569.554816319515,2.727673096303495e-13
158,1624.905047388441,2.6798737999945665e-13
159,1682.2072001248252,2.632058774746224e-13
160,1741.530108928,2.5843438060926066e-13
161,1802.9450355909432,2.5368298332011343e-13
162,1866.5257549617932,2.489604418308536e-13
163,1932.3486435577945,2.4427431167603607e-13
164,2000.4927713085644,2.3963107441649004e-13
165,2071.0399965239026,2.350362540360232e-13
166,2144.0750642766393,2.3049452324031375e-13
167,2219.685708132484,2.2600980002047956e-13
168,2297.9627555806223,2.215853350060047e-13
169,2379.000237151466,2.172237901677573e-13
170,2462.8954993303887,2.1292730948380802e-13
171,2549.7493215395666,2.0869758220312182e-13
172,2639.6660371743246,2.0453589932031508e-13
173,2732.753658952485,2.004432038762442e-13
174,2829.124008603937,1.9642013565231486e-13
175,2928.8928513086,1.9246707081524044e-13
176,3032.1800346514765,1.8858415700281922e-13
177,3139.10963263903,1.8477134433928296e-13
178,3249.8100947632765,1.810284128010524e-13
179,3364.4144002632565,1.7735499632221717e-13
180,3483.060217856,1.7375060400815845e-13
181,3605.890071168281,1.702146387801052e-13
182,3733.0515099099807,1.6674641372252932e-13
183,3864.6972871019834,1.633451664214767e-13
184,4000.9855426035233,1.6001007151311177e-13
185,4142.079993061411,1.5674025164310297e-13
186,4288.150128553279,1.5353478704781076e-13
187,4439.371416264968,1.5039272389313988e-13
188,4595.925511161245,1.4731308154919595e-13
189,4758.000474289327,1.4429485889079277e-13
190,4925.790998660777,1.4133703979063622e-13
191,5099.498643079133,1.3843859785246052e-13
192,5279.332074362255,1.3559850051966758e-13
193,5465.507317891364,1.3281571260712477e-13
194,5658.248017207874,1.300891993463892e-13
195,5857.7857026172,1.274179289933892e-13
196,6064.360069302953,1.2480087505862797e-13
197,6278.2192652916665,1.222370182069992e-13
198,6499.620189540159,1.1972534786752124e-13
199,6728.828800526513,1.1726486359151175e-13
200,6966.120435712,1.1485457618871678e-13
201,7211.780142350168,1.1249350867425027e-13
202,7466.103019833567,1.1018069704602802e-13
203,7729.394574217573,1.0791519091839741e-13
204,8001.971085207047,1.0569605402996815e-13
205,8284.159986109216,1.0352236464053176e-13
206,8576.300257120163,1.0139321583376376e-13
207,8878.74283251633,9.93077157381225e-14
208,9191.85102232249,9.72649876775021e-14
209,9516.000948578654,9.526417025867698e-14
210,9851.581997307949,9.330441740827516e-14
211,10198.997286158266,9.138489836371906e-14
212,10558.664148710905,8.950479762595936e-14
213,10931.014635782729,8.766331487791826e-14
214,11316.496034429352,8.585966487706763e-14
215,11715.5714052344,8.409307732369276e-14
216,12128.720138592302,8.236279670699824e-14
217,12556.438530569727,8.066808213843243e-14
218,12999.240379080318,7.900820716858154e-14
219,13457.657601039418,7.738245959289959e-14
220,13932.240871424,7.579014124916028e-14
221,14423.560284645913,7.423056780708056e-14
222,14932.206039694345,7.270306855320298e-14
223,15458.789148462356,7.120698616759766e-14
224,16003.942170468516,6.974167650539991e-14
225,16568.31997219122,6.830650836648387e-14
226,17152.60051429475,6.690086327240557e-14
227,17757.485664978238,6.552413523560207e-14
228,18383.702044617767,6.417573053638454e-14
229,19032.00189721173,6.285506749476767e-14
230,19703.163994615898,6.15615762453243e-14
231,20397.994572343745,6.029469851461354e-14
232,21117.32829747623,5.905388740104138e-14
233,21862.029271538242,5.783860715436254e-14
234,22632.992068885917,5.6648332961243145e-14
235,23431.1428104688,5.548255072954164e-14
236,24257.440277184603,5.434075687978729e-14
237,25112.877061193878,5.322245813679196e-14
238,25998.480758187845,5.212717132465453e-14
239,26915.315202106052,5.105442316669847e-14
240,27864.481742848,5.0003750086828565e-14
241,28847.12056942788,4.897469801539508e-14
242,29864.412079252634,4.7966822197134176e-14
243,30917.578296788655,4.6979687004666205e-14
244,32007.884340800967,4.601286575258745e-14
245,33136.6399445185,4.5065940517417865e-14
246,34305.20102845344,4.413850195873029e-14
247,35514.97133009253,4.323014914629906e-14
248,36767.40408923553,4.2340489387213195e-14
249,38064.003794287404,4.1469138059358946e-14
250,39406.327989231795,4.061571844611009e-14
251,40795.98914468749,3.977986157493304e-14
252,42234.656594816406,3.8961206059169247e-14
253,43724.058543212544,3.815939794330285e-14
254,45265.98413777183,3.7374090550287846e-14
255,46862.2856209376,3.660494433251339e-14
256,48514.88055436921,3.5851626726359535e-14
257,50225.754122251696,3.511381200807421e-14
258,51996.96151623964,3.439118115464619e-14
259,53830.630404212105,3.368342170515762e-14
260,55728.963485696,3.299022762667139e-14
