,E (eV),I (erg/s/cm**2)
0,1.360543186192048,9.479842836943168e-05
1,2.0408011735840956,0.00010330095988861073
2,2.7210727666801198,0.0001111890311797942
3,3.401344359776144,0.00011994633987188893
4,4.081615952872168,0.00013125520131404382
5,4.761873940264215,0.00013677452565672097
6,5.4421455333602395,0.0001334527249749936
7,6.122417126456264,0.000125098994905116
8,6.802688719552288,0.00011215308888843379
9,7.482946706944335,0.00010167462856816052
10,8.16321830004036,8.991954567807588e-05
11,8.843489893136384,7.50685197831318e-05
12,9.523761486232408,6.368353995666829e-05
13,10.204019473624456,3.44088785026424e-05
14,10.884291066720479,2.9504044448575213e-05
15,11.564562659816504,2.0421427021058575e-05
16,12.244834252912527,1.1822259378715026e-05
17,12.92510584600855,7.645388328524072e-06
18,13.7414208731606,1.975420343885128e-06
19,14.421692466256623,1.9116092902370067e-06
20,15.101964059352648,1.8405964170945446e-06
21,15.782222046744696,1.7841959987570013e-06
22,16.46249363984072,1.7424570117764561e-06
23,17.142765232936743,1.6955479238707179e-06
24,17.823036826032766,1.6546596877103356e-06
25,18.503294813424816,1.6109446335145737e-06
26,19.18356640652084,1.566244394600042e-06
27,19.863837999616862,1.5317018756583962e-06
28,20.544109592712886,1.488378417279254e-06
29,21.224367580104932,1.4509671590909283e-06
30,21.90463917320096,1.419005346635379e-06
31,22.584910766296982,1.3875145871191105e-06
32,23.26518235939301,1.3527863131748835e-06
33,23.945440346785055,1.3175451830957952e-06
34,24.62571193988108,1.2793671360454302e-06
35,25.305983532977105,1.238536425110317e-06
36,25.986255126073125,1.2047186481334627e-06
37,26.66652671916915,1.1655060136792554e-06
38,27.210741272505174,1.1276792667631083e-06
39,27.3467847065612,1.1188265707918333e-06
40,27.4828417463212,1.111657384113295e-06
41,27.618898786081196,1.1054595717458864e-06
42,27.7549558258412,1.0886798176383717e-06
43,27.89099925989722,1.085995382199355e-06
44,28.02705629965722,1.0799465717362284e-06
45,28.16311333941722,1.0738562614565076e-06
46,28.299170379177223,1.0653051960826977e-06
47,28.435213813233247,1.0522796227305533e-06
48,28.571270852993244,1.0439629703528595e-06
49,28.70732789275325,1.0441851737541136e-06
50,28.843384932513246,1.0351376972568512e-06
51,28.97942836656927,1.0159432555749528e-06
52,29.115485406329267,1.011708066446689e-06
53,29.25154244608927,1.0038929124027912e-06
54,29.387599485849268,1.0003884758952086e-06
55,29.523642919905292,9.866432890348815e-07
56,29.659699959665296,9.775574978000091e-07
57,29.795756999425294,9.72790553044743e-07
58,29.931814039185298,9.67671294690203e-07
59,30.067857473241315,9.589259509136118e-07
60,30.20391451300132,9.413401708771308e-07
61,30.339971552761316,9.380013762271085e-07
62,30.47602859252132,9.328176259997787e-07
63,30.612072026577344,9.293605567585373e-07
64,30.74812906633734,9.197068507558366e-07
65,30.884186106097346,9.028836721075987e-07
66,31.020243145857343,8.956013982431019e-07
67,31.156286579913367,8.900308414154939e-07
68,31.292343619673364,8.912021753126941e-07
69,31.42840065943337,8.830483078708878e-07
70,31.564457699193365,8.657303580881048e-07
71,31.70050113324939,8.583378903474797e-07
72,31.836558173009394,8.511924810702266e-07
73,31.97261521276939,8.468604097890538e-07
74,32.108672252529395,8.420996942209016e-07
75,32.244715686585415,8.286732358044725e-07
76,32.38077272634541,8.198385717777366e-07
77,32.51682976610541,8.141408770345671e-07
78,32.652886805865414,8.091575766017297e-07
79,32.78893023992144,8.054258475616547e-07
80,32.92498727968144,7.889604018123244e-07
81,33.06104431944144,7.829413419742678e-07
82,33.19710135920144,7.77947189557974e-07
83,33.33314479325746,7.725938964067401e-07
84,33.46920183301746,7.679948209522394e-07
85,33.60525887277746,7.642368626822624e-07
86,33.74131591253746,7.47388416177367e-07
87,33.87735934659349,7.418434350684849e-07
88,34.01341638635349,7.340307492201098e-07
89,34.14947342611349,7.299312250211763e-07
90,34.285530465873485,7.28318182683194e-07
91,34.421573899929506,7.231141521578281e-07
92,34.55763093968951,7.061589884560702e-07
93,34.69368797944951,7.017244380880313e-07
94,34.82974501920951,6.96919759884589e-07
95,34.96578845326554,6.918387588775871e-07
96,35.101845493025536,6.883668806687237e-07
97,35.23790253278553,6.842332928544385e-07
98,35.37395957254554,6.791598395684298e-07
99,35.51000300660156,6.656669452369229e-07
100,35.646060046361555,6.592304229042537e-07
101,35.78211708612156,6.525210894271723e-07
102,35.918174125881556,6.463388415884813e-07
103,36.054217559937584,6.415373421722256e-07
104,36.19027459969758,6.352737911052714e-07
105,36.326331639457585,6.28828650851148e-07
106,36.46238867921758,6.246461994636437e-07
107,36.59844571897758,6.201730909781399e-07
108,36.73448915303361,6.144347420016982e-07
109,36.870546192793604,6.081794872609855e-07
110,37.00660323255361,6.03761179286631e-07
111,37.142660272313606,5.982337388141754e-07
112,37.27870370636963,5.91530507574675e-07
113,37.41476074612963,5.882390966635638e-07
114,37.55081778588963,5.815647867389572e-07
115,37.686874825649625,5.766167653452107e-07
116,37.82291825970565,5.717631098996262e-07
117,37.958975299465656,5.685700153356611e-07
118,38.095032339225654,5.623963327715776e-07
119,38.23108937898566,5.590189238916113e-07
120,38.36713281304168,5.526796041758392e-07
121,38.503189852801675,5.478009573227262e-07
122,38.63924689256167,5.434531708277833e-07
123,38.77530393232168,5.385839149263615e-07
124,38.911347366377704,5.328562669630968e-07
125,39.0474044061377,5.293058409247967e-07
126,39.183461445897706,5.239714927059679e-07
127,39.3195184856577,5.206743675338753e-07
128,39.45556191971372,5.169365019015594e-07
129,39.59161895947372,5.116433222543373e-07
130,39.727675999233725,5.081962663710646e-07
131,39.86373303899372,5.032064161926329e-07
132,39.99977647304975,4.985428168907303e-07
133,40.135833512809754,4.947446286526009e-07
134,40.27189055256975,4.90007450918559e-07
135,40.407947592329755,4.866944711249226e-07
136,40.54399102638577,4.81951636963006e-07
137,40.68004806614577,4.777965407400549e-07
138,40.81610510590577,4.737785004719599e-07
139,40.952162145665774,3.594969445070663e-07
140,41.0882055797218,3.572025454331439e-07
141,41.2242626194818,3.542373174114842e-07
142,41.3603196592418,3.5207874956723465e-07
143,41.4963766990018,3.490428327280812e-07
144,41.63242013305782,3.46494186032158e-07
145,41.76847717281782,3.439599350232883e-07
146,41.90453421257782,3.414389597259357e-07
147,42.04059125233782,3.3903213244082934e-07
148,42.17663468639385,3.3645978482010576e-07
149,42.31269172615385,3.3438876785049603e-07
150,42.44874876591385,3.3161493206856275e-07
151,42.584805805673845,3.2977688743667186e-07
152,42.720849239729866,3.2696884620832417e-07
153,42.85690627948987,3.2509602583177397e-07
154,42.99296331924987,3.226288149369724e-07
155,43.12902035900987,3.203794525394403e-07
156,43.2650637930659,3.183603085405617e-07
157,43.401120832825896,3.1582363895813534e-07
158,43.53717787258589,3.140679931101532e-07
159,43.67323491234589,3.119835890560823e-07
160,43.80927834640192,3.0981580637381405e-07
161,43.945335386161915,3.080317796811614e-07
162,44.08139242592192,3.0560118097537917e-07
163,44.217449465681916,3.0342759223120115e-07
164,44.353492899737944,3.015430744994655e-07
165,44.48954993949794,2.993901246093565e-07
166,44.62560697925794,2.976905570739361e-07
167,44.761664019017935,2.955416882933707e-07
168,44.89770745307396,2.94145684455481e-07
169,45.03376449283397,2.9174770556285153e-07
170,45.169821532593964,2.9057393229461337e-07
171,45.30587857235397,2.879591022279932e-07
172,45.44192200640999,2.871492546231217e-07
173,45.577979046169986,2.8441058532172836e-07
174,45.71403608592998,2.8389400002836283e-07
175,45.85009312568999,2.812310863181935e-07
176,45.986136559746015,2.806627369241444e-07
177,46.12219359950601,2.7828149936485257e-07
178,46.258250639266016,2.7757484484866027e-07
179,46.394307679026014,2.752268713811146e-07
180,46.53035111308204,2.727016598774733e-07
181,46.66640815284203,2.7232948067111963e-07
182,46.802465192602035,2.7001670089176706e-07
183,46.93852223236203,2.6961593229158973e-07
184,47.07456566641806,2.6730124336967e-07
185,47.210622706178064,2.6734535701860864e-07
186,47.34667974593806,2.64569274926044e-07
187,47.482736785698066,2.6528674346313634e-07
188,47.618780219754086,2.6227852109391184e-07
189,47.75483725951408,2.598495030091821e-07
190,47.89089429927408,2.602590796820941e-07
191,48.026951339034085,2.5751717061487477e-07
192,48.16299477309011,2.585057848098501e-07
193,48.29905181285011,2.554658487386159e-07
194,48.43506041766452,2.5720041910653444e-07
195,48.43515728755569,2.5720093350615306e-07
196,48.57116589237011,2.579504605079138e-07
197,48.707222932130115,2.5514502376988e-07
198,48.84326636618613,2.5667933240510103e-07
199,48.97932340594613,2.533808856798039e-07
200,49.11538044570613,2.508368990143391e-07
201,49.251437485466134,2.521834931142222e-07
202,49.38748091952216,2.491138818454119e-07
203,49.52353795928216,2.5113867599653275e-07
204,49.65959499904216,2.4793769737660937e-07
205,49.79565203880216,2.4513753491249005e-07
206,49.93169547285818,2.4714531384747884e-07
207,50.06775251261818,2.439464934032842e-07
208,50.20380955237818,2.465894125771217e-07
209,50.33986659213818,2.4333169183684133e-07
210,50.47591002619421,2.402686900852292e-07
211,50.61196706595421,2.4308224765460647e-07
212,50.74802410571421,2.397163208819065e-07
213,50.884081145474205,2.3676537934324238e-07
214,51.02007355950089,2.3974117368951115e-07
215,51.02017559955957,2.3974165317144303e-07
216,51.15618161929023,2.384585466995763e-07
217,51.29223865905023,2.420469278943495e-07
218,51.42829569881023,2.3859848779215675e-07
219,51.56433913286626,2.3528605771883822e-07
220,51.700396172626256,2.3909283943061507e-07
221,51.83645321238625,2.355538906144712e-07
222,51.97251025214625,2.3231829745715974e-07
223,52.10855368620228,2.3639454660738828e-07
224,52.24455848141958,2.3279978727371689e-07
225,52.244662970504976,2.3280025287315077e-07
226,52.38066776572228,2.3086343439817003e-07
227,52.516724805482276,2.3525549684885894e-07
228,52.652768239538304,2.3159429195568893e-07
229,52.7888252792983,2.2833120944993427e-07
230,52.92482939423041,2.3393087040986504e-07
231,52.924935243886196,2.3393133827159258e-07
232,53.060939358818295,2.3021987316937302e-07
233,53.19698279287432,2.3593848171157102e-07
234,53.33303983263433,2.3194246825564418e-07
235,53.469096872394324,2.2816521906875068e-07
236,53.60515391215433,2.343158445695557e-07
237,53.74119734621035,2.3023271597469555e-07
238,53.877254385970346,2.263790101160243e-07
239,54.01331142573034,2.328869936375668e-07
240,54.14936846549035,2.2871433817180486e-07
241,54.285411899546375,2.247730181767148e-07
242,54.55752597906638,2.2737937026705904e-07
243,61.36021469861866,1.8013317411355754e-07
244,68.16288981246697,1.7799488877940943e-07
245,74.96557853201926,1.753938207713336e-07
246,81.76825364586757,1.722580906529173e-07
247,88.57094236541987,1.6892922349494468e-07
248,95.37363108497215,1.6558516731218472e-07
249,102.17630619882047,1.624013811748361e-07
250,108.97899491837275,1.5951076131226826e-07
251,115.78168363792504,1.570066675670438e-07
252,122.58435875177334,1.5497624566184122e-07
253,129.38704747132562,1.5348524627319316e-07
254,136.05367915111793,1.5255620096738298e-07
255,136.1897361908779,1.5254409859397937e-07
256,204.0805119238249,1.6448027674248253e-07
257,272.10735830223587,1.8716303021614936e-07
258,340.1341910749428,2.1022180289032592e-07
259,408.1610238476498,2.3548837378515065e-07
260,476.18787022606074,2.6229539466590774e-07
261,544.2147029987677,2.894167314788902e-07
262,612.2415493771787,3.1620695023240826e-07
263,680.2683821498856,3.4234496144159245e-07
264,748.2952149225927,3.6765624340234036e-07
265,816.3220613010035,3.9224370639047474e-07
266,884.3488940737104,4.1618891439942146e-07
267,952.3757404521215,4.39555709673392e-07
268,1020.4025732248285,4.623954870580197e-07
269,1088.4294196032395,4.847506345046698e-07
270,1156.4562523759464,5.066567354508981e-07
271,1224.4830851486533,5.281441640542042e-07
272,1292.5099315270643,5.492391719005338e-07
273,1360.5367642997712,5.699646799262018e-07
274,1496.590443450889,6.103858783722362e-07
275,1632.644122602007,6.495447467963145e-07
276,1768.697801753125,6.875523091235258e-07
277,1904.7514672985392,7.245004909808322e-07
278,2040.805146449657,7.604667528652101e-07
279,2176.8588256007747,7.955172826662241e-07
280,2312.912504751893,8.297093413587772e-07
281,2448.966183903011,8.63092980279249e-07
282,2585.0198630541286,8.957123435571063e-07
283,2721.0735285995424,9.276066715690228e-07
284,2857.1272077506605,9.588111072045182e-07
285,2993.180886901778,9.89357296587085e-07
286,3129.2345660528963,1.019273913154729e-06
287,3265.288245204014,1.0485870664848814e-06
288,3401.3419107494283,1.0773206353296303e-06
289,3537.3955899005464,1.1054965690506134e-06
290,3673.4492690516645,1.133135096350401e-06
291,3809.502948202782,1.1602549422755734e-06
292,3945.5566273539002,1.1868734930329548e-06
293,4081.610306505018,1.2130069408916852e-06
294,4217.663972050432,1.2386704043258905e-06
295,4353.717651201549,1.2638780531576394e-06
296,4489.771330352668,1.2886431764044184e-06
297,4625.825009503786,1.3129782803430885e-06
298,4761.878688654903,1.3368951573879936e-06
299,4897.932354200318,1.3604049449076897e-06
300,5033.986033351435,1.3835181955341428e-06
301,5170.039712502553,1.4062449056803378e-06
302,5306.0933916536715,1.428594572352905e-06
303,5442.147070804789,1.4505762320003667e-06
304,5578.200749955907,1.472198493402832e-06
305,5714.254415501321,1.4934695667551029e-06
306,5850.308094652439,1.514397307289081e-06
307,5986.361773803556,1.5349892182333849e-06
308,6122.415452954675,1.555252490255457e-06
309,6258.469132105793,1.5751940181195569e-06
310,6394.522797651206,1.5948204172744167e-06
311,6530.576476802325,1.6141380546254365e-06
312,6666.630155953442,1.6331530451068252e-06
313,6802.68383510456,1.6518712793084412e-06
314,6938.737514255678,1.670298434172093e-06
315,7074.791179801093,1.688439982003709e-06
316,7210.8448589522095,1.706301215519274e-06
317,7346.898538103329,1.7238872386053304e-06
318,7482.952217254446,1.741202988752444e-06
319,7619.005896405564,1.758253243735665e-06
320,7755.059575556682,1.7750426292993337e-06
321,7891.113241102096,1.791575624948549e-06
322,8027.166920253213,1.8078565826100203e-06
323,8163.220599404332,1.8238897147287022e-06
324,8299.27427855545,1.8396791140885206e-06
325,8435.327957706568,1.8552287555986857e-06
326,8571.38162325198,1.8705424992132963e-06
327,8707.435302403099,1.8856241071963764e-06
328,8843.488981554217,1.900477230320572e-06
329,8979.542660705336,1.91510542576235e-06
330,9115.596339856453,1.9295121572596205e-06
331,9251.650019007571,1.943700798104902e-06
332,9387.703684552984,1.957674635296509e-06
333,9523.757363704102,1.9714368812873925e-06
334,9659.81104285522,1.9849906609283244e-06
335,9795.86472200634,1.998339028058857e-06
336,9931.918401157456,2.011484962608387e-06
337,10067.97206670287,2.024431373139667e-06
338,10204.025745853987,2.0371811088615297e-06
339,10340.079425005106,2.04973694644261e-06
340,10476.133104156224,2.062101603835582e-06
341,10612.186783307343,2.074277738466184e-06
342,10748.24046245846,2.0862679496243585e-06
343,10884.294128003874,2.098074780259955e-06
344,11020.34780715499,2.1097007257890975e-06
345,11156.40148630611,2.1211482219932887e-06
346,11292.455165457228,2.132419658502146e-06
347,11428.508844608346,2.143517375369236e-06
348,11564.562510153759,2.1544436633621834e-06
349,11700.616189304877,2.1652007757205934e-06
350,11836.669868455994,2.175790915255151e-06
351,11972.723547607113,2.1862162431654832e-06
352,12108.777226758231,2.196478879875874e-06
353,12244.83090590935,2.206580907261724e-06
354,12380.884571454762,2.2165243641901802e-06
355,12516.938250605881,2.226311260650598e-06
356,12652.991929756998,2.2359435622313576e-06
357,12789.045608908116,2.245423202456787e-06
358,12925.099288059235,2.2547520791338697e-06
359,13061.15295360465,2.2639320552861307e-06
360,13197.206632755768,2.272964968153564e-06
361,13333.260311906884,2.2818526170156554e-06
362,13469.313991058003,2.2905967724848233e-06
363,13605.36767020912,2.299199174339368e-06
364,16326.441198808663,2.4439257531410104e-06
365,19047.514727408205,2.544055870241947e-06
366,21768.58826961345,2.6084631953455616e-06
367,24489.661798212994,2.6440999137046016e-06
368,27210.735326812537,2.6565870983774456e-06
369,29931.808869017783,2.650580223417246e-06
370,32652.882397617326,2.6299974875027896e-06
371,35373.95592621687,2.598161916191075e-06
372,38095.029468422115,2.5578975961580185e-06
373,40816.10299702166,2.5115825002969823e-06
374,43537.1765392269,2.4612067114758044e-06
375,46258.25006782645,2.408394049839228e-06
376,48979.32359642599,2.354454602820441e-06
377,51700.39713863123,2.300403130207454e-06
378,54421.47066723078,2.247016888901039e-06
379,57142.54419583032,2.1948460295088946e-06
380,59863.617738035566,2.1442750515508774e-06
381,62584.691266635105,2.0955467111746e-06
382,65305.76479523465,2.0488082080675122e-06
383,68026.8383374399,2.0041076743195865e-06
384,70747.91186603945,1.9614590811285985e-06
385,73468.98539463898,1.9208174664493937e-06
386,76190.05893684423,1.882122933385799e-06
387,78911.13246544376,1.845298793853605e-06
388,81632.20599404332,1.8102579531218263e-06
389,84353.27953624855,1.7769079978927943e-06
390,87074.35306484811,1.7451550755879783e-06
391,89795.42659344764,1.7149067178693006e-06
392,92516.5001356529,1.686073744559578e-06
393,95237.57366425243,1.658568743805537e-06
394,97958.64719285197,1.6322904936011303e-06
395,100679.72073505721,1.6071523873710659e-06
396,103400.79426365678,1.5830760648843114e-06
397,106121.86779225631,1.5599904323729583e-06
398,108842.94133446156,1.5378308255601635e-06
399,111564.0148630611,1.5165382820021567e-06
400,114285.08839166064,1.4960589164081208e-06
401,117006.16193386588,1.476343373102055e-06
402,119727.23546246543,1.4573463508871808e-06
403,122448.30900467066,1.4390261883094396e-06
404,125169.38253327021,1.4213444962546908e-06
405,127890.45606186974,1.4042658374813361e-06
406,130611.529604075,1.3877574417129264e-06
407,133332.60313267456,1.3717889559709412e-06
408,136053.6766612741,1.3563322195450339e-06
409,138774.75020347934,1.3413610666895354e-06
410,141495.8237320789,1.3268511485567757e-06
411,144216.89726067844,1.3127797765524968e-06
412,146937.97080288368,1.2991257787063968e-06
413,149659.04433148322,1.2858693733234156e-06
414,156461.72816658777,1.254349241897777e-06
415,163264.4120016923,1.2249426486413857e-06
416,170067.0958367969,1.197428212862294e-06
417,176869.77965829574,1.1716154323313627e-06
418,183672.4634934003,1.1473393840073357e-06
419,190475.14732850486,1.1244564928170646e-06
420,197277.83116360943,1.102841121059856e-06
421,204080.51499871397,1.0823828013519608e-06
422,210883.19883381855,1.0629839716162387e-06
423,217685.88266892312,1.044558108018507e-06
424,224488.56649042197,1.0270281771897567e-06
425,231291.25032552652,1.0103253467544556e-06
426,238093.93416063106,9.943878991965807e-07
427,244896.61799573564,9.791603198437912e-07
428,251699.30183084018,9.645925212996857e-07
429,258501.98566594475,9.506391825538921e-07
430,265304.6695010493,9.372591851019933e-07
431,272107.3533225482,9.244151267144075e-07
432,278910.0371576527,9.120729032187564e-07
433,285712.7209927573,9.002013451133112e-07
434,292515.4048278619,8.887719026964289e-07
435,299318.08866296645,8.777583710031967e-07
436,306120.77249807096,8.67136649050431e-07
437,312923.45633317553,8.568845285970114e-07
438,319726.1401682801,8.469815084566259e-07
439,326528.82398977893,8.374086301392071e-07
440,333331.50782488356,8.281483325753441e-07
441,340134.1916599881,8.191843226362887e-07
442,346936.87549509265,8.105014612000162e-07
443,353739.5593301972,8.02085660299162e-07
444,360542.24316530174,7.939237915353639e-07
445,367344.9270004063,7.860036039962995e-07
446,374147.6108219052,7.783136510743481e-07
447,380950.2946570097,7.708432238276163e-07
