,E (eV),I (erg/s/cm**2)
0,1.360543186192048,6.928286969957161e-05
1,2.0408011735840956,7.698189516131997e-05
2,2.7210727666801198,8.413604316514216e-05
3,3.401344359776144,9.001200962194936e-05
4,4.081615952872168,9.748761090544454e-05
5,4.761873940264215,9.61672725102145e-05
6,5.4421455333602395,9.128477692195265e-05
7,6.122417126456264,8.4447780948677e-05
8,6.802688719552288,7.51876361313445e-05
9,7.482946706944335,6.700858325224843e-05
10,8.16321830004036,5.843197991557605e-05
11,8.843489893136384,5.239046655921823e-05
12,9.523761486232408,4.301641456945204e-05
13,10.204019473624456,2.3672289805032663e-05
14,10.884291066720479,1.822172672092004e-05
15,11.564562659816504,1.4185185374595754e-05
16,12.244834252912527,9.049649398132927e-06
17,12.92510584600855,5.403867732824395e-06
18,13.7414208731606,1.2630726043849557e-06
19,14.421692466256623,1.2189296549415335e-06
20,15.101964059352648,1.1834532324007454e-06
21,15.782222046744696,1.1457038544705212e-06
22,16.46249363984072,1.122032904942563e-06
23,17.142765232936743,1.091301071250401e-06
24,17.823036826032766,1.058237475174721e-06
25,18.503294813424816,1.029675529693837e-06
26,19.18356640652084,1.0006914227388e-06
27,19.863837999616862,9.772553882845924e-07
28,20.544109592712886,9.514037295981375e-07
29,21.224367580104932,9.239494304997242e-07
30,21.90463917320096,8.974812429262349e-07
31,22.584910766296982,8.674836078309628e-07
32,23.26518235939301,8.421371843426162e-07
33,23.945440346785055,8.101234896212907e-07
34,24.62571193988108,7.841009943693644e-07
35,25.305983532977105,7.504638555238931e-07
36,25.986255126073125,7.179406287406942e-07
37,26.66652671916915,6.924958648303833e-07
38,27.210741272505174,6.674301178987784e-07
39,27.3467847065612,6.565891419418301e-07
40,27.4828417463212,6.493328985190742e-07
41,27.618898786081196,6.453535143918832e-07
42,27.7549558258412,6.424372995218505e-07
43,27.89099925989722,6.386912989213085e-07
44,28.02705629965722,6.265516090568039e-07
45,28.16311333941722,6.211581882584788e-07
46,28.299170379177223,6.172546822757836e-07
47,28.435213813233247,6.147369733141219e-07
48,28.571270852993244,6.013241227808754e-07
49,28.70732789275325,5.970820281258579e-07
50,28.843384932513246,5.932653066761076e-07
51,28.97942836656927,5.898968498533428e-07
52,29.115485406329267,5.862469768696126e-07
53,29.25154244608927,5.739087805024954e-07
54,29.387599485849268,5.678280256133388e-07
55,29.523642919905292,5.634596240229933e-07
56,29.659699959665296,5.621732512036435e-07
57,29.795756999425294,5.59176654131081e-07
58,29.931814039185298,5.467546050668839e-07
59,30.067857473241315,5.428098199623661e-07
60,30.20391451300132,5.369326965087329e-07
61,30.339971552761316,5.33844994102539e-07
62,30.47602859252132,5.307372731605855e-07
63,30.612072026577344,5.204554989806563e-07
64,30.74812906633734,5.162615514448628e-07
65,30.884186106097346,5.110194758120398e-07
66,31.020243145857343,5.078991081695767e-07
67,31.156286579913367,5.047891308835305e-07
68,31.292343619673364,5.009672519142997e-07
69,31.42840065943337,4.887114068372592e-07
70,31.564457699193365,4.867959936911521e-07
71,31.70050113324939,4.836289059842632e-07
72,31.836558173009394,4.807920274895849e-07
73,31.97261521276939,4.777370157391886e-07
74,32.108672252529395,4.7410927789295635e-07
75,32.244715686585415,4.622853253929798e-07
76,32.38077272634541,4.574174659935347e-07
77,32.51682976610541,4.526056541943621e-07
78,32.652886805865414,4.4931619871624505e-07
79,32.78893023992144,4.447588009123346e-07
80,32.92498727968144,4.4151031502209577e-07
81,33.06104431944144,4.3700155968921234e-07
82,33.19710135920144,4.321257377365516e-07
83,33.33314479325746,4.279204405889694e-07
84,33.46920183301746,4.2317525895310224e-07
85,33.60525887277746,4.2020790117437776e-07
86,33.74131591253746,4.1735811382876955e-07
87,33.87735934659349,4.1237974036306347e-07
88,34.01341638635349,4.082672287530068e-07
89,34.14947342611349,4.0559056078765164e-07
90,34.285530465873485,4.0093583662010003e-07
91,34.421573899929506,3.9700012631924444e-07
92,34.55763093968951,3.923508133721131e-07
93,34.69368797944951,3.902432615724881e-07
94,34.82974501920951,3.854162092660678e-07
95,34.96578845326554,3.830872546785488e-07
96,35.101845493025536,3.785779055370503e-07
97,35.23790253278553,3.7618741964572095e-07
98,35.37395957254554,3.721238671730425e-07
99,35.51000300660156,3.680459544956146e-07
100,35.646060046361555,3.657224209351359e-07
101,35.78211708612156,3.617310032660423e-07
102,35.918174125881556,3.577523808962071e-07
103,36.054217559937584,3.5541360366665566e-07
104,36.19027459969758,3.516435516371994e-07
105,36.326331639457585,3.488361404026081e-07
106,36.46238867921758,3.465615971646583e-07
107,36.59844571897758,3.425970376212155e-07
108,36.73448915303361,3.3927451172555296e-07
109,36.870546192793604,3.3680342940274574e-07
110,37.00660323255361,3.3333802486997735e-07
111,37.142660272313606,3.2984467387340093e-07
112,37.27870370636963,3.2763652182263646e-07
113,37.41476074612963,3.2416961142907766e-07
114,37.55081778588963,3.220308233270872e-07
115,37.686874825649625,3.195131919083106e-07
116,37.82291825970565,3.1611641006630315e-07
117,37.958975299465656,3.1409714543570296e-07
118,38.095032339225654,3.1063537568888256e-07
119,38.23108937898566,3.0747725160432744e-07
120,38.36713281304168,3.0538690571907253e-07
121,38.503189852801675,3.0215401665924977e-07
122,38.63924689256167,3.0025666625761516e-07
123,38.77530393232168,2.9685089486112464e-07
124,38.911347366377704,2.9518153274727774e-07
125,39.0474044061377,2.9195117668983136e-07
126,39.183461445897706,2.9010102148640733e-07
127,39.3195184856577,2.878964791409363e-07
128,39.45556191971372,2.8515150568835275e-07
129,39.59161895947372,2.8314343669903687e-07
130,39.727675999233725,2.8039991596673676e-07
131,39.86373303899372,2.786466615049741e-07
132,39.99977647304975,2.757932028522728e-07
133,40.135833512809754,2.7404752926663213e-07
134,40.27189055256975,2.7124147384722203e-07
135,40.407947592329755,2.6888299896868465e-07
136,40.54399102638577,2.6687180880654027e-07
137,40.68004806614577,2.645057328665392e-07
138,40.81610510590577,2.624714102737495e-07
139,40.952162145665774,2.0644537585526873e-07
140,41.0882055797218,2.0520726499060667e-07
141,41.2242626194818,2.0365985309360324e-07
142,41.3603196592418,2.0231239242933473e-07
143,41.4963766990018,2.0096083089425354e-07
144,41.63242013305782,1.9944151940993265e-07
145,41.76847717281782,1.9822467991138743e-07
146,41.90453421257782,1.9677131169015408e-07
147,42.04059125233782,1.9540760455274336e-07
148,42.17663468639385,1.9432289554893323e-07
149,42.31269172615385,1.9272074467869637e-07
150,42.44874876591385,1.9178803153114713e-07
151,42.584805805673845,1.9033789540787335e-07
152,42.720849239729866,1.8923718252318574e-07
153,42.85690627948987,1.8804862539735468e-07
154,42.99296331924987,1.867245917642428e-07
155,43.12902035900987,1.8585582621815873e-07
156,43.2650637930659,1.8432963937504615e-07
157,43.401120832825896,1.8362196991006916e-07
158,43.53717787258589,1.8215425226387177e-07
159,43.67323491234589,1.8101738823165016e-07
160,43.80927834640192,1.8006012424988204e-07
161,43.945335386161915,1.7873091562707244e-07
162,44.08139242592192,1.7799235877245424e-07
163,44.217449465681916,1.766601548087383e-07
164,44.353492899737944,1.7598871025128252e-07
165,44.48954993949794,1.7464960519531578e-07
166,44.62560697925794,1.7411905036657034e-07
167,44.761664019017935,1.7272346541185378e-07
168,44.89770745307396,1.716129543501356e-07
169,45.03376449283397,1.7094407228135551e-07
170,45.169821532593964,1.6968483324327385e-07
171,45.30587857235397,1.69352374070468e-07
172,45.44192200640999,1.678017635707094e-07
173,45.577979046169986,1.6778598342161688e-07
174,45.71403608592998,1.6624762311698243e-07
175,45.85009312568999,1.6492018272906412e-07
176,45.986136559746015,1.6490846119320804e-07
177,46.12219359950601,1.6336495495372146e-07
178,46.258250639266016,1.6352041228172814e-07
179,46.394307679026014,1.6207267353275705e-07
180,46.53035111308204,1.6067068968293758e-07
181,46.66640815284203,1.6090862098160933e-07
182,46.802465192602035,1.5940274143027598e-07
183,46.93852223236203,1.597153565312229e-07
184,47.07456566641806,1.5831283623243384e-07
185,47.210622706178064,1.5689318982506493e-07
186,47.34667974593806,1.5723342966522324e-07
187,47.482736785698066,1.5581993690958237e-07
188,47.618780219754086,1.5641800625345117e-07
189,47.75483725951408,1.5484726539858484e-07
190,47.89089429927408,1.5343777208401605e-07
191,48.026951339034085,1.5414750983369036e-07
192,48.16299477309011,1.525997856290311e-07
193,48.29905181285011,1.5366993135356504e-07
194,48.43506041766452,1.5404843131710503e-07
195,48.43515728755569,1.5404873941323718e-07
196,48.57116589237011,1.524331926831136e-07
197,48.707222932130115,1.536438448396859e-07
198,48.84326636618613,1.5198024814541387e-07
199,48.97932340594613,1.503475752197629e-07
200,49.11538044570613,1.5162746294377144e-07
201,49.251437485466134,1.4993800331097016e-07
202,49.38748091952216,1.4836044425604727e-07
203,49.52353795928216,1.4975967155425342e-07
204,49.65959499904216,1.4805651913863927e-07
205,49.79565203880216,1.4990679236953939e-07
206,49.93169547285818,1.480362850717896e-07
207,50.06775251261818,1.463185579064339e-07
208,50.20380955237818,1.4834941628996722e-07
209,50.33986659213818,1.4646085678360533e-07
210,50.47591002619421,1.4473594374597812e-07
211,50.61196706595421,1.4696244107968846e-07
212,50.74802410571421,1.4500980338940193e-07
213,50.884081145474205,1.4324766593631574e-07
214,51.02007355950089,1.467928003182332e-07
215,51.02017559955957,1.4573063119441225e-07
216,51.15618161929023,1.4478606856296112e-07
217,51.29223865905023,1.4295095348807784e-07
218,51.42829569881023,1.4566949245110822e-07
219,51.56433913286626,1.4364183240108904e-07
220,51.700396172626256,1.4176085720685832e-07
221,51.83645321238625,1.4473512259604769e-07
222,51.97251025214625,1.426731453734534e-07
223,52.10855368620228,1.4075353761994212e-07
224,52.24455848141958,1.446776291900162e-07
225,52.244662970504976,1.4400834177846719e-07
226,52.38066776572228,1.4253710977935782e-07
227,52.516724805482276,1.4054522386326957e-07
228,52.652768239538304,1.4416777814698093e-07
229,52.7888252792983,1.4192783016194615e-07
230,52.92482939423041,1.4029593544834275e-07
231,52.924935243886196,1.4029621604020568e-07
232,53.060939358818295,1.384113305115742e-07
233,53.19698279287432,1.4200125309934044e-07
234,53.33303983263433,1.3981942283863968e-07
235,53.469096872394324,1.3782182821846916e-07
236,53.60515391215433,1.4184361801960852e-07
237,53.74119734621035,1.395661035335465e-07
238,53.877254385970346,1.3746101594292218e-07
239,54.01331142573034,1.418680957134451e-07
240,54.14936846549035,1.3948910425605474e-07
241,54.285411899546375,1.372681815639713e-07
242,54.55752597906638,1.3958150267987582e-07
243,61.36021469861866,1.1365520000525067e-07
244,68.16288981246697,1.13159837592581e-07
245,74.96557853201926,1.1218382313812987e-07
246,81.76825364586757,1.1077809639724031e-07
247,88.57094236541987,1.0919817829207888e-07
248,95.37363108497215,1.0760554655434383e-07
249,102.17630619882047,1.0614866241408146e-07
250,108.97899491837275,1.0494702491936553e-07
251,115.78168363792504,1.0407291670396811e-07
252,122.58435875177334,1.0357576696889587e-07
253,129.38704747132562,1.0345805424272356e-07
254,136.05367915111793,1.0371804558966119e-07
255,136.1897361908779,1.0372777694188854e-07
256,204.0805119238249,1.1723973978020426e-07
257,272.10735830223587,1.3465210547734673e-07
258,340.1341910749428,1.5307767720532715e-07
259,408.1610238476498,1.730243722662366e-07
260,476.18787022606074,1.9349778292812675e-07
261,544.2147029987677,2.1375902668734475e-07
262,612.2415493771787,2.335436367094272e-07
263,680.2683821498856,2.5275466345672727e-07
264,748.2952149225927,2.7135689844037353e-07
265,816.3220613010035,2.894246923988648e-07
266,884.3488940737104,3.0701645691920673e-07
267,952.3757404521215,3.2417821787764093e-07
268,1020.4025732248285,3.4094723247481153e-07
269,1088.4294196032395,3.5735436972070304e-07
270,1156.4562523759464,3.7342564112689305e-07
271,1224.4830851486533,3.8918332050216504e-07
272,1292.5099315270643,4.0464670924550566e-07
273,1360.5367642997712,4.198326976774902e-07
274,1496.590443450889,4.49430588493574e-07
275,1632.644122602007,4.780783586352423e-07
276,1768.697801753125,5.058583815202342e-07
277,1904.7514672985392,5.328390084023348e-07
278,2040.805146449657,5.590779406925212e-07
279,2176.8588256007747,5.846245618896069e-07
280,2312.912504751893,6.095216572190625e-07
281,2448.966183903011,6.338066750273304e-07
282,2585.0198630541286,6.575126856320543e-07
283,2721.0735285995424,6.806691210451122e-07
284,2857.1272077506605,7.033023701650156e-07
285,2993.180886901778,7.254362228104145e-07
286,3129.2345660528963,7.470922578395776e-07
287,3265.288245204014,7.682901447774725e-07
288,3401.3419107494283,7.890478925735966e-07
289,3537.3955899005464,8.093820705630375e-07
290,3673.4492690516645,8.293079650533614e-07
291,3809.502948202782,8.488397401337191e-07
292,3945.5566273539002,8.67990559424141e-07
293,4081.610306505018,8.867726946538044e-07
294,4217.663972050432,9.051976149276943e-07
295,4353.717651201549,9.232760778942765e-07
296,4489.771330352668,9.410181831858037e-07
297,4625.825009503786,9.584334432363682e-07
298,4761.878688654903,9.755308355369926e-07
299,4897.932354200318,9.923188461582516e-07
300,5033.986033351435,1.0088055219690646e-06
301,5170.039712502553,1.0249984918035142e-06
302,5306.0933916536715,1.0409050100670202e-06
303,5442.147070804789,1.0565319841312727e-06
304,5578.200749955907,1.0718859991465714e-06
305,5714.254415501321,1.0869733410521591e-06
306,5850.308094652439,1.1018000271743668e-06
307,5986.361773803556,1.116371810633522e-06
308,6122.415452954675,1.1306942075033249e-06
309,6258.469132105793,1.144772511141759e-06
310,6394.522797651206,1.1586118039118699e-06
311,6530.576476802325,1.1722169796566556e-06
312,6666.630155953442,1.1855927418230424e-06
313,6802.68383510456,1.1987436244211638e-06
314,6938.737514255678,1.2116739992971425e-06
315,7074.791179801093,1.2243880829580108e-06
316,7210.8448589522095,1.236889955859132e-06
317,7346.898538103329,1.249183555132514e-06
318,7482.952217254446,1.2612726913815526e-06
319,7619.005896405564,1.2731610540499029e-06
320,7755.059575556682,1.2848522166342537e-06
321,7891.113241102096,1.2963496413773536e-06
322,8027.166920253213,1.3076566929749167e-06
323,8163.220599404332,1.3187766304563512e-06
324,8299.27427855545,1.329712621416312e-06
325,8435.327957706568,1.3404677431684826e-06
326,8571.38162325198,1.3510449856330124e-06
327,8707.435302403099,1.3614472633518675e-06
328,8843.488981554217,1.371677406604712e-06
329,8979.542660705336,1.3817381725933826e-06
330,9115.596339856453,1.39163224820796e-06
331,9251.650019007571,1.4013622510741033e-06
332,9387.703684552984,1.410930731374741e-06
333,9523.757363704102,1.4203401826841162e-06
334,9659.81104285522,1.4295930327055502e-06
335,9795.86472200634,1.4386916520593892e-06
336,9931.918401157456,1.4476383562263466e-06
337,10067.97206670287,1.4564354055234472e-06
338,10204.025745853987,1.4650850141728233e-06
339,10340.079425005106,1.4735893409086136e-06
340,10476.133104156224,1.4819504983327626e-06
341,10612.186783307343,1.4901705530527646e-06
342,10748.24046245846,1.4982515278503761e-06
343,10884.294128003874,1.5061953996138291e-06
344,11020.34780715499,1.5140041102069584e-06
345,11156.40148630611,1.5216795551092387e-06
346,11292.455165457228,1.5292235931514684e-06
347,11428.508844608346,1.536638045880545e-06
348,11564.562510153759,1.5439246967981832e-06
349,11700.616189304877,1.5510852991401998e-06
350,11836.669868455994,1.5581215677535277e-06
351,11972.723547607113,1.56503518476797e-06
352,12108.777226758231,1.571827802056532e-06
353,12244.83090590935,1.5785010392836593e-06
354,12380.884571454762,1.5850564847410935e-06
355,12516.938250605881,1.5914957029833373e-06
356,12652.991929756998,1.5978202244989923e-06
357,12789.045608908116,1.6040315542173289e-06
358,12925.099288059235,1.6101311707932947e-06
359,13061.15295360465,1.6161205243766486e-06
360,13197.206632755768,1.622001045297637e-06
361,13333.260311906884,1.6277741346832183e-06
362,13469.313991058003,1.6334411703856903e-06
363,13605.36767020912,1.6390035077313272e-06
364,16326.441198808663,1.730167884832451e-06
365,19047.514727408205,1.7888705454062896e-06
366,21768.58826961345,1.8220093433832021e-06
367,24489.661798212994,1.8349888825811319e-06
368,27210.735326812537,1.832179164634958e-06
369,29931.808869017783,1.817188507689249e-06
370,32652.882397617326,1.7930272912127216e-06
371,35373.95592621687,1.7622074010879215e-06
372,38095.029468422115,1.726807896944228e-06
373,40816.10299702166,1.6885242130776927e-06
374,43537.1765392269,1.648706675981608e-06
375,46258.25006782645,1.6083990902067798e-06
376,48979.32359642599,1.5683851877501398e-06
377,51700.39713863123,1.5292129448385875e-06
378,54421.47066723078,1.4912659379922648e-06
379,57142.54419583032,1.4547729847842564e-06
380,59863.617738035566,1.4198641083753256e-06
381,62584.691266635105,1.3865830073721698e-06
382,65305.76479523465,1.3549341038734096e-06
383,68026.8383374399,1.3248733902350765e-06
384,70747.91186603945,1.2963493454914887e-06
385,73468.98539463898,1.2692856022981877e-06
386,76190.05893684423,1.2436036067876297e-06
387,78911.13246544376,1.2192230992829098e-06
388,81632.20599404332,1.196064338475194e-06
389,84353.27953624855,1.174050040702205e-06
390,87074.35306484811,1.1531078728415279e-06
391,89795.42659344764,1.1331673182869898e-06
392,92516.5001356529,1.114161527083414e-06
393,95237.57366425243,1.096030089625309e-06
394,97958.64719285197,1.078707254915321e-06
395,100679.72073505721,1.0621359396079011e-06
396,103400.79426365678,1.046264494292825e-06
397,106121.86779225631,1.0310460604501152e-06
398,108842.94133446156,1.0164380162310828e-06
399,111564.0148630611,1.0024014982010084e-06
400,114285.08839166064,9.889009888157183e-07
401,117006.16193386588,9.759039570542577e-07
402,119727.23546246543,9.63380543783521e-07
403,122448.30900467066,9.51303288368591e-07
404,125169.38253327021,9.396468873475064e-07
405,127890.45606186974,9.283879831371292e-07
406,130611.529604075,9.175049759720302e-07
407,133332.60313267456,9.069778586816076e-07
408,136053.6766612741,8.967880700189013e-07
409,138774.75020347934,8.869183628957987e-07
410,141495.8237320789,8.77352688439153e-07
411,144216.89726067844,8.680760910846906e-07
412,146937.97080288368,8.590746163050185e-07
413,149659.04433148322,8.503352244969601e-07
414,156461.72816658777,8.295551945825334e-07
415,163264.4120016923,8.101683688790486e-07
416,170067.0958367969,7.920288248142448e-07
417,176869.77965829574,7.750109924380368e-07
418,183672.4634934003,7.590061624605495e-07
419,190475.14732850486,7.439196955801067e-07
420,197277.83116360943,7.296687772334052e-07
421,204080.51499871397,7.161805912034668e-07
422,210883.19883381855,7.033908277382552e-07
423,217685.88266892312,6.912424531222606e-07
424,224488.56649042197,6.796846895775348e-07
425,231291.25032552652,6.686721640788519e-07
426,238093.93416063106,6.581641943714567e-07
427,244896.61799573564,6.481241860376015e-07
428,251699.30183084018,6.385191226233909e-07
429,258501.98566594475,6.293191290841051e-07
430,265304.6695010493,6.204971008476307e-07
431,272107.3533225482,6.120283825993673e-07
432,278910.0371576527,6.038904932246803e-07
433,285712.7209927573,5.960628861663955e-07
434,292515.4048278619,5.885267413771655e-07
435,299318.08866296645,5.812647846259955e-07
436,306120.77249807096,5.742611284553531e-07
437,312923.45633317553,5.675011334092371e-07
438,319726.1401682801,5.609712847864973e-07
439,326528.82398977893,5.546590850471924e-07
440,333331.50782488356,5.485529577421622e-07
441,340134.1916599881,5.426421622517137e-07
442,346936.87549509265,5.369167187735968e-07
443,353739.5593301972,5.313673402420753e-07
444,360542.24316530174,5.259853720579905e-07
445,367344.9270004063,5.20762738318521e-07
446,374147.6108219052,5.156918930674162e-07
447,380950.2946570097,5.107657767098366e-07
