,E (eV),I (erg/s/cm**2)
0,1.360543186192048,0.000238162608203825
1,2.0408011735840956,0.0002493816729159291
2,2.7210727666801198,0.00025606935226753935
3,3.401344359776144,0.00027394778962376245
4,4.081615952872168,0.00031753556623857326
5,4.761873940264215,0.0003558506083262623
6,5.4421455333602395,0.00037536151135835963
7,6.122417126456264,0.00038508230038182865
8,6.802688719552288,0.0003746913527325426
9,7.482946706944335,0.00035005744105519424
10,8.16321830004036,0.00031916251631321864
11,8.843489893136384,0.00028795403580516665
12,9.523761486232408,0.00025057176659870313
13,10.204019473624456,0.00013012463450795352
14,10.884291066720479,9.523436052255405e-05
15,11.564562659816504,8.035029467200333e-05
16,12.244834252912527,5.086972515472809e-05
17,12.92510584600855,2.572877762869039e-05
18,13.7414208731606,7.327852494405711e-06
19,14.421692466256623,7.029849444121933e-06
20,15.101964059352648,6.7844916515431145e-06
21,15.782222046744696,6.54925307056714e-06
22,16.46249363984072,6.377898751880731e-06
23,17.142765232936743,6.190206727539493e-06
24,17.823036826032766,6.008428035214178e-06
25,18.503294813424816,5.869891857815108e-06
26,19.18356640652084,5.703840463849403e-06
27,19.863837999616862,5.5653527198732954e-06
28,20.544109592712886,5.421329012377266e-06
29,21.224367580104932,5.275251539633512e-06
30,21.90463917320096,5.178842789299663e-06
31,22.584910766296982,5.076919816305317e-06
32,23.26518235939301,5.000082823501955e-06
33,23.945440346785055,4.890456864929927e-06
34,24.62571193988108,4.8185660700359064e-06
35,25.305983532977105,4.731794990287018e-06
36,25.986255126073125,4.6527043693649564e-06
37,26.66652671916915,4.579354486074817e-06
38,27.210741272505174,4.51146027884125e-06
39,27.3467847065612,4.476677354400892e-06
40,27.4828417463212,4.453442726109907e-06
41,27.618898786081196,4.4324637268281605e-06
42,27.7549558258412,4.441492963192801e-06
43,27.89099925989722,4.413254538251103e-06
44,28.02705629965722,4.391108940949971e-06
45,28.16311333941722,4.38864744884387e-06
46,28.299170379177223,4.360349195412157e-06
47,28.435213813233247,4.3311078777135274e-06
48,28.571270852993244,4.317816798246461e-06
49,28.70732789275325,4.2838610074186175e-06
50,28.843384932513246,4.29289664536559e-06
51,28.97942836656927,4.289694132747398e-06
52,29.115485406329267,4.267478964862591e-06
53,29.25154244608927,4.252518458360368e-06
54,29.387599485849268,4.249389422031538e-06
55,29.523642919905292,4.23978674274457e-06
56,29.659699959665296,4.226349309081771e-06
57,29.795756999425294,4.1953587650124284e-06
58,29.931814039185298,4.219982688677e-06
59,30.067857473241315,4.199137795934423e-06
60,30.20391451300132,4.184137051569963e-06
61,30.339971552761316,4.150075047166278e-06
62,30.47602859252132,4.129241533370916e-06
63,30.612072026577344,4.146778196965594e-06
64,30.74812906633734,4.144049776191554e-06
65,30.884186106097346,4.103423179202211e-06
66,31.020243145857343,4.088326349476983e-06
67,31.156286579913367,4.069385728942514e-06
68,31.292343619673364,4.064956040576367e-06
69,31.42840065943337,4.067484086181966e-06
70,31.564457699193365,4.048278830373908e-06
71,31.70050113324939,4.014010083953335e-06
72,31.836558173009394,4.005789979873372e-06
73,31.97261521276939,3.9989294035530464e-06
74,32.108672252529395,3.993048572092959e-06
75,32.244715686585415,3.98272484950114e-06
76,32.38077272634541,3.942468102544707e-06
77,32.51682976610541,3.921521461110767e-06
78,32.652886805865414,3.937596059368094e-06
79,32.78893023992144,3.9247501098313386e-06
80,32.92498727968144,3.898596869914724e-06
81,33.06104431944144,3.8812319705441136e-06
82,33.19710135920144,3.8576390257559715e-06
83,33.33314479325746,3.861494059323098e-06
84,33.46920183301746,3.843947291289468e-06
85,33.60525887277746,3.823802215488403e-06
86,33.74131591253746,3.8075257840958616e-06
87,33.87735934659349,3.777582079252141e-06
88,34.01341638635349,3.7526645322608893e-06
89,34.14947342611349,3.7633210814005934e-06
90,34.285530465873485,3.749177444395279e-06
91,34.421573899929506,3.7300498354166148e-06
92,34.55763093968951,3.6981199789836437e-06
93,34.69368797944951,3.6674629270841797e-06
94,34.82974501920951,3.6505207630609458e-06
95,34.96578845326554,3.6730866342725863e-06
96,35.101845493025536,3.6359707077890194e-06
97,35.23790253278553,3.608631025654403e-06
98,35.37395957254554,3.585400544232649e-06
99,35.51000300660156,3.5691782844744923e-06
100,35.646060046361555,3.557989556190266e-06
101,35.78211708612156,3.5380592008334447e-06
102,35.918174125881556,3.5115919699129587e-06
103,36.054217559937584,3.5013771786683425e-06
104,36.19027459969758,3.485721563038941e-06
105,36.326331639457585,3.4749985020571345e-06
106,36.46238867921758,3.451967759327261e-06
107,36.59844571897758,3.418059620625065e-06
108,36.73448915303361,3.4058914853060726e-06
109,36.870546192793604,3.3892083392201874e-06
110,37.00660323255361,3.379189548289733e-06
111,37.142660272313606,3.363690029168974e-06
112,37.27870370636963,3.3320952311456333e-06
113,37.41476074612963,3.3057943596155233e-06
114,37.55081778588963,3.279224010896624e-06
115,37.686874825649625,3.2841905522430276e-06
116,37.82291825970565,3.2676442620612304e-06
117,37.958975299465656,3.23380099910613e-06
118,38.095032339225654,3.219493480718691e-06
119,38.23108937898566,3.195232940887578e-06
120,38.36713281304168,3.167708387868383e-06
121,38.503189852801675,3.1577926705869976e-06
122,38.63924689256167,3.1343855704829926e-06
123,38.77530393232168,3.108525622448834e-06
124,38.911347366377704,3.1008139094940785e-06
125,39.0474044061377,3.0851450365974854e-06
126,39.183461445897706,3.0511433935840323e-06
127,39.3195184856577,3.051765226780008e-06
128,39.45556191971372,3.025575145946802e-06
129,39.59161895947372,2.9798322347080404e-06
130,39.727675999233725,2.978408592632512e-06
131,39.86373303899372,2.9677837811584546e-06
132,39.99977647304975,2.9474171318857317e-06
133,40.135833512809754,2.930871335579191e-06
134,40.27189055256975,2.916909532413142e-06
135,40.407947592329755,2.8834406037154983e-06
136,40.54399102638577,2.8488890679475353e-06
137,40.68004806614577,2.8323797256661184e-06
138,40.81610510590577,2.8133234327246614e-06
139,40.952162145665774,1.8200155795383481e-06
140,41.0882055797218,1.8007229515859813e-06
141,41.2242626194818,1.787997879739861e-06
142,41.3603196592418,1.7614818373603086e-06
143,41.4963766990018,1.74783511732023e-06
144,41.63242013305782,1.7383995304360934e-06
145,41.76847717281782,1.7292693170856298e-06
146,41.90453421257782,1.730614928072286e-06
147,42.04059125233782,1.7091054681585963e-06
148,42.17663468639385,1.696077942710465e-06
149,42.31269172615385,1.6734993234495694e-06
150,42.44874876591385,1.6603231864449844e-06
151,42.584805805673845,1.6504860817250127e-06
152,42.720849239729866,1.6435077792873908e-06
153,42.85690627948987,1.6419267355547837e-06
154,42.99296331924987,1.6300027826737651e-06
155,43.12902035900987,1.6097020540443418e-06
156,43.2650637930659,1.586903105470814e-06
157,43.401120832825896,1.5748297300608655e-06
158,43.53717787258589,1.5641726062075167e-06
159,43.67323491234589,1.5548365858624307e-06
160,43.80927834640192,1.5560232162833043e-06
161,43.945335386161915,1.5404199861524447e-06
162,44.08139242592192,1.5322256087250446e-06
163,44.217449465681916,1.5180624337764394e-06
164,44.353492899737944,1.4929195919783476e-06
165,44.48954993949794,1.4799175170103985e-06
166,44.62560697925794,1.46988294923989e-06
167,44.761664019017935,1.4626892232256292e-06
168,44.89770745307396,1.4608204124129696e-06
169,45.03376449283397,1.4497643756468195e-06
170,45.169821532593964,1.442620601129911e-06
171,45.30587857235397,1.4293749757779826e-06
172,45.44192200640999,1.4043087969413678e-06
173,45.577979046169986,1.3923829282065114e-06
174,45.71403608592998,1.3831643971417117e-06
175,45.85009312568999,1.374617103057822e-06
176,45.986136559746015,1.3717352006372226e-06
177,46.12219359950601,1.3606428036356954e-06
178,46.258250639266016,1.3604081834402133e-06
179,46.394307679026014,1.3457938497451676e-06
180,46.53035111308204,1.3225663211798905e-06
181,46.66640815284203,1.3119150742914657e-06
182,46.802465192602035,1.300389835520895e-06
183,46.93852223236203,1.2930376409538615e-06
184,47.07456566641806,1.2818941597358284e-06
185,47.210622706178064,1.2704469502043408e-06
186,47.34667974593806,1.2767570722898387e-06
187,47.482736785698066,1.2634534614389442e-06
188,47.618780219754086,1.2486235912602887e-06
189,47.75483725951408,1.2368159535428942e-06
190,47.89089429927408,1.224254778189966e-06
191,48.026951339034085,1.2153059127013891e-06
192,48.16299477309011,1.2068181580054278e-06
193,48.29905181285011,1.1963660821455276e-06
194,48.43506041766452,1.2204511741169176e-06
195,48.43515728755569,1.2204536150134786e-06
196,48.57116589237011,1.2356404317482224e-06
197,48.707222932130115,1.2349405485694583e-06
198,48.84326636618613,1.2183553586136537e-06
199,48.97932340594613,1.2175100980991268e-06
200,49.11538044570613,1.2007792647861082e-06
201,49.251437485466134,1.200748965513128e-06
202,49.38748091952216,1.1840406888845989e-06
203,49.52353795928216,1.1843408001008177e-06
204,49.65959499904216,1.1682233019760452e-06
205,49.79565203880216,1.1686845444492228e-06
206,49.93169547285818,1.1526149448584054e-06
207,50.06775251261818,1.1534281674412453e-06
208,50.20380955237818,1.1562251870119474e-06
209,50.33986659213818,1.138914594203527e-06
210,50.47591002619421,1.1423614335419285e-06
211,50.61196706595421,1.1246909731796006e-06
212,50.74802410571421,1.1288723614877528e-06
213,50.884081145474205,1.1112532863741777e-06
214,51.02007355950089,1.116440877588712e-06
215,51.02017559955957,1.116443110468532e-06
216,51.15618161929023,1.1157641704731194e-06
217,51.29223865905023,1.1213314948657338e-06
218,51.42829569881023,1.1031611678810055e-06
219,51.56433913286626,1.1096227699458597e-06
220,51.700396172626256,1.0909741718822958e-06
221,51.83645321238625,1.0986252523137413e-06
222,51.97251025214625,1.0798253511131265e-06
223,52.10855368620228,1.088332233913857e-06
224,52.24455848141958,1.0694148738092849e-06
225,52.244662970504976,1.0694170126383862e-06
226,52.38066776572228,1.0898587825410278e-06
227,52.516724805482276,1.0702677298393424e-06
228,52.652768239538304,1.0811381209370991e-06
229,52.7888252792983,1.0608785976989024e-06
230,52.92482939423041,1.0499493220069909e-06
231,52.924935243886196,1.0499514219055752e-06
232,53.060939358818295,1.059924086325156e-06
233,53.19698279287432,1.0410030301594248e-06
234,53.33303983263433,1.0523831524494068e-06
235,53.469096872394324,1.032829001248821e-06
236,53.60515391215433,1.0458001277083816e-06
237,53.74119734621035,1.0256562585838318e-06
238,53.877254385970346,1.0403930315119798e-06
239,54.01331142573034,1.0194588086881798e-06
240,54.14936846549035,1.0355318006958393e-06
241,54.285411899546375,1.013581135271965e-06
242,54.55752597906638,1.0086149744849504e-06
243,61.36021469861866,7.220224963272998e-07
244,68.16288981246697,6.942108645393033e-07
245,74.96557853201926,6.706825925458558e-07
246,81.76825364586757,6.469178161386167e-07
247,88.57094236541987,6.240575724404307e-07
248,95.37363108497215,6.024546751445293e-07
249,102.17630619882047,5.825464474839384e-07
250,108.97899491837275,5.642671872880307e-07
251,115.78168363792504,5.47383832024677e-07
252,122.58435875177334,5.318164414424957e-07
253,129.38704747132562,5.175162016217798e-07
254,136.05367915111793,5.047401784787921e-07
255,136.1897361908779,5.044937329983753e-07
256,204.0805119238249,4.5279607839147803e-07
257,272.10735830223587,4.995603768071331e-07
258,340.1341910749428,5.481425486126655e-07
259,408.1610238476498,5.947708747852533e-07
260,476.18787022606074,6.470957860962236e-07
261,544.2147029987677,7.060341146763252e-07
262,612.2415493771787,7.695717524354996e-07
263,680.2683821498856,8.341031372912776e-07
264,748.2952149225927,8.965910679305069e-07
265,816.3220613010035,9.57289371493843e-07
266,884.3488940737104,1.016419174159119e-06
267,952.3757404521215,1.074150167881384e-06
268,1020.4025732248285,1.1306166657653686e-06
269,1088.4294196032395,1.1859278594998963e-06
270,1156.4562523759464,1.2401743138020096e-06
271,1224.4830851486533,1.2934325533041174e-06
272,1292.5099315270643,1.3457681526172308e-06
273,1360.5367642997712,1.397237952840374e-06
274,1496.590443450889,1.4977738353350957e-06
275,1632.644122602007,1.5953754195609165e-06
276,1768.697801753125,1.6903121191675418e-06
277,1904.7514672985392,1.7828055270734146e-06
278,2040.805146449657,1.8730413533692815e-06
279,2176.8588256007747,1.961177546011806e-06
280,2312.912504751893,2.047350194893173e-06
281,2448.966183903011,2.1316778170737107e-06
282,2585.0198630541286,2.2142645893756806e-06
283,2721.0735285995424,2.295202821548233e-06
284,2857.1272077506605,2.374574936349036e-06
285,2993.180886901778,2.4524549395887768e-06
286,3129.2345660528963,2.528909699320803e-06
287,3265.288245204014,2.603999936599703e-06
288,3401.3419107494283,2.67778104010723e-06
289,3537.3955899005464,2.7503037898148083e-06
290,3673.4492690516645,2.821614863205444e-06
291,3809.502948202782,2.8917573615264185e-06
292,3945.5566273539002,2.9607712035430404e-06
293,4081.610306505018,3.0286934779139107e-06
294,4217.663972050432,3.095558727624791e-06
295,4353.717651201549,3.1613992543670583e-06
296,4489.771330352668,3.2262452766672896e-06
297,4625.825009503786,3.2901251722764253e-06
298,4761.878688654903,3.3530656341568415e-06
299,4897.932354200318,3.4150918146639547e-06
300,5033.986033351435,3.4762274976298964e-06
301,5170.039712502553,3.536495160132598e-06
302,5306.0933916536715,3.595916111344665e-06
303,5442.147070804789,3.654510582100048e-06
304,5578.200749955907,3.7122978082757987e-06
305,5714.254415501321,3.7692960960291387e-06
306,5850.308094652439,3.8255229238393515e-06
307,5986.361773803556,3.880994955432691e-06
308,6122.415452954675,3.935728126886386e-06
309,6258.469132105793,3.9897376914149705e-06
310,6394.522797651206,4.0430382526289045e-06
311,6530.576476802325,4.095643846770731e-06
312,6666.630155953442,4.147567921904466e-06
313,6802.68383510456,4.198823415581331e-06
314,6938.737514255678,4.249422770040333e-06
315,7074.791179801093,4.299377961372342e-06
316,7210.8448589522095,4.3487005532717936e-06
317,7346.898538103329,4.397401677297319e-06
318,7482.952217254446,4.445492084043252e-06
319,7619.005896405564,4.492982163403742e-06
320,7755.059575556682,4.5398819563246064e-06
321,7891.113241102096,4.586201169870563e-06
322,8027.166920253213,4.631949228675054e-06
323,8163.220599404332,4.677135234578001e-06
324,8299.27427855545,4.721768021159157e-06
325,8435.327957706568,4.765856157036249e-06
326,8571.38162325198,4.809407949884261e-06
327,8707.435302403099,4.85243149064102e-06
328,8843.488981554217,4.894934617991948e-06
329,8979.542660705336,4.936924958751068e-06
330,9115.596339856453,4.978409932805196e-06
331,9251.650019007571,5.019396759891442e-06
332,9387.703684552984,5.059892462414467e-06
333,9523.757363704102,5.099903901730544e-06
334,9659.81104285522,5.139437742415203e-06
335,9795.86472200634,5.178500488356808e-06
336,9931.918401157456,5.217098486275157e-06
337,10067.97206670287,5.255237917240762e-06
338,10204.025745853987,5.292924837790216e-06
339,10340.079425005106,5.330165143875307e-06
340,10476.133104156224,5.3669645962269925e-06
341,10612.186783307343,5.4033288271678015e-06
342,10748.24046245846,5.439263345083982e-06
343,10884.294128003874,5.474773525975205e-06
344,11020.34780715499,5.509864649491961e-06
345,11156.40148630611,5.544541863105174e-06
346,11292.455165457228,5.578810211611023e-06
347,11428.508844608346,5.61267463269912e-06
348,11564.562510153759,5.646139958496916e-06
349,11700.616189304877,5.679210939395664e-06
350,11836.669868455994,5.711892214909277e-06
351,11972.723547607113,5.744188337638381e-06
352,12108.777226758231,5.7761037684254195e-06
353,12244.83090590935,5.807642886996766e-06
354,12380.884571454762,5.838809979820351e-06
355,12516.938250605881,5.869609274210948e-06
356,12652.991929756998,5.900044898368697e-06
357,12789.045608908116,5.9301209120972096e-06
358,12925.099288059235,5.959841302243518e-06
359,13061.15295360465,5.9892099779751774e-06
360,13197.206632755768,6.018230795537704e-06
361,13333.260311906884,6.046907528448902e-06
362,13469.313991058003,6.075243890356568e-06
363,13605.36767020912,6.1032435303703436e-06
364,16326.441198808663,6.597651631360045e-06
365,19047.514727408205,6.982737125674763e-06
366,21768.58826961345,7.277129124074192e-06
367,24489.661798212994,7.495465706252161e-06
368,27210.735326812537,7.649595921102638e-06
369,29931.808869017783,7.74933128383906e-06
370,32652.882397617326,7.802949621983547e-06
371,35373.95592621687,7.817546631893836e-06
372,38095.029468422115,7.799285677799782e-06
373,40816.10299702166,7.75357300669755e-06
374,43537.1765392269,7.68518579406354e-06
375,46258.25006782645,7.59835929984112e-06
376,48979.32359642599,7.496843816020654e-06
377,51700.39713863123,7.383959658134088e-06
378,54421.47066723078,7.262626823938317e-06
379,57142.54419583032,7.135404790022426e-06
380,59863.617738035566,7.004491863451875e-06
381,62584.691266635105,6.871769229224913e-06
382,65305.76479523465,6.73881971814931e-06
383,68026.8383374399,6.606962479421968e-06
384,70747.91186603945,6.477255814688712e-06
385,73468.98539463898,6.350520758933746e-06
386,76190.05893684423,6.227376971556466e-06
387,78911.13246544376,6.108340106756306e-06
388,81632.20599404332,5.9936658600750235e-06
389,84353.27953624855,5.88357706330441e-06
390,87074.35306484811,5.7781801153890685e-06
391,89795.42659344764,5.6774738220069384e-06
392,92516.5001356529,5.581417327797817e-06
393,95237.57366425243,5.489813337915284e-06
394,97958.64719285197,5.402295949754056e-06
395,100679.72073505721,5.3185766339673595e-06
396,103400.79426365678,5.238394324352083e-06
397,106121.86779225631,5.161512173615996e-06
398,108842.94133446156,5.0877147503860945e-06
399,111564.0148630611,5.016805622412626e-06
400,114285.08839166064,4.94860527171293e-06
401,117006.16193386588,4.88294927263509e-06
402,119727.23546246543,4.81968670858302e-06
403,122448.30900467066,4.758678785498349e-06
404,125169.38253327021,4.699797614224955e-06
405,127890.45606186974,4.642925140078462e-06
406,130611.529604075,4.58795219530579e-06
407,133332.60313267456,4.534777660365113e-06
408,136053.6766612741,4.483307723291439e-06
409,138774.75020347934,4.433455219475405e-06
410,141495.8237320789,4.385139034736032e-06
411,144216.89726067844,4.3382835868940306e-06
412,146937.97080288368,4.292818346591681e-06
413,149659.04433148322,4.248677414653952e-06
414,156461.72816658777,4.143723907607886e-06
415,163264.4120016923,4.045810073282208e-06
416,170067.0958367969,3.9541984564015e-06
417,176869.77965829574,3.868254468591809e-06
418,183672.4634934003,3.7874287383191855e-06
419,190475.14732850486,3.7112430053833766e-06
420,197277.83116360943,3.6392787698348073e-06
421,204080.51499871397,3.57116806820945e-06
422,210883.19883381855,3.506585923545687e-06
423,217685.88266892312,3.4452441334731187e-06
424,224488.56649042197,3.386886110305844e-06
425,231291.25032552652,3.331282582173276e-06
426,238093.93416063106,3.278227979830772e-06
427,244896.61799573564,3.2275373973010495e-06
428,251699.30183084018,3.179044004009603e-06
429,258501.98566594475,3.1325968498756036e-06
430,265304.6695010493,3.0880589820348277e-06
431,272107.3533225482,3.0453058254189223e-06
432,278910.0371576527,3.0042237931187466e-06
433,285712.7209927573,2.964709071513315e-06
434,292515.4048278619,2.9266665739364056e-06
435,299318.08866296645,2.8900090240010456e-06
436,306120.77249807096,2.8546561524950058e-06
437,312923.45633317553,2.8205339964907374e-06
438,319726.1401682801,2.7875742775198592e-06
439,326528.82398977893,2.755713855422092e-06
440,333331.50782488356,2.7248942443518027e-06
441,340134.1916599881,2.695061183862445e-06
442,346936.87549509265,2.666164254774964e-06
443,353739.5593301972,2.6381565389514294e-06
444,360542.24316530174,2.610994315797971e-06
445,367344.9270004063,2.5846367873229655e-06
446,374147.6108219052,2.559045832301662e-06
447,380950.2946570097,2.5341857887847294e-06
