,E (eV),I (erg/s/cm**2)
0,1.360543186192048,0.00017611992254000546
1,2.0408011735840956,0.00018378228207201989
2,2.7210727666801198,0.0001930582516290945
3,3.401344359776144,0.00021229679171089495
4,4.081615952872168,0.0002404635794805535
5,4.761873940264215,0.0002619405889728575
6,5.4421455333602395,0.00026969384932455464
7,6.122417126456264,0.00027203580546386147
8,6.802688719552288,0.00025498938993970407
9,7.482946706944335,0.00023727581988695017
10,8.16321830004036,0.00021408258623810975
11,8.843489893136384,0.00019196886874599007
12,9.523761486232408,0.00016394638097017792
13,10.204019473624456,8.115081478781317e-05
14,10.884291066720479,6.98713415717483e-05
15,11.564562659816504,5.1344710442913214e-05
16,12.244834252912527,3.4627089517001144e-05
17,12.92510584600855,1.5332037673417854e-05
18,13.7414208731606,4.867064076842418e-06
19,14.421692466256623,4.671704638784287e-06
20,15.101964059352648,4.5292190562018635e-06
21,15.782222046744696,4.3776176737534674e-06
22,16.46249363984072,4.2573789410360496e-06
23,17.142765232936743,4.128962424592926e-06
24,17.823036826032766,4.029067623993055e-06
25,18.503294813424816,3.9223339203239765e-06
26,19.18356640652084,3.808152246107761e-06
27,19.863837999616862,3.7245851781584563e-06
28,20.544109592712886,3.6328512422485135e-06
29,21.224367580104932,3.56298395001401e-06
30,21.90463917320096,3.4928426347004307e-06
31,22.584910766296982,3.41945564577265e-06
32,23.26518235939301,3.3594430693352068e-06
33,23.945440346785055,3.280199700121491e-06
34,24.62571193988108,3.1936391424218797e-06
35,25.305983532977105,3.1368861456958283e-06
36,25.986255126073125,3.070226472093645e-06
37,26.66652671916915,3.0285935758158717e-06
38,27.210741272505174,2.982162927243682e-06
39,27.3467847065612,2.9635178196357618e-06
40,27.4828417463212,2.9543763180808424e-06
41,27.618898786081196,2.9504099237230657e-06
42,27.7549558258412,2.920767232308618e-06
43,27.89099925989722,2.9254227968174453e-06
44,28.02705629965722,2.910883582309253e-06
45,28.16311333941722,2.8862461902514206e-06
46,28.299170379177223,2.887945758374102e-06
47,28.435213813233247,2.884298213195139e-06
48,28.571270852993244,2.8627289893255247e-06
49,28.70732789275325,2.8471403196792315e-06
50,28.843384932513246,2.8360929157319043e-06
51,28.97942836656927,2.8296313266107483e-06
52,29.115485406329267,2.8151575530258076e-06
53,29.25154244608927,2.7999788178898043e-06
54,29.387599485849268,2.7948180219745376e-06
55,29.523642919905292,2.7708344252822924e-06
56,29.659699959665296,2.7591635184527563e-06
57,29.795756999425294,2.7519588596268578e-06
58,29.931814039185298,2.7422149821762156e-06
59,30.067857473241315,2.7261365234184166e-06
60,30.20391451300132,2.710465789364522e-06
61,30.339971552761316,2.6983326859409367e-06
62,30.47602859252132,2.6935807520141793e-06
63,30.612072026577344,2.6743148803375186e-06
64,30.74812906633734,2.6607196745100563e-06
65,30.884186106097346,2.6494826496268305e-06
66,31.020243145857343,2.6277898574366108e-06
67,31.156286579913367,2.616440172473224e-06
68,31.292343619673364,2.604256439991392e-06
69,31.42840065943337,2.601313981318045e-06
70,31.564457699193365,2.57687034224795e-06
71,31.70050113324939,2.5534469989722905e-06
72,31.836558173009394,2.5349669041159746e-06
73,31.97261521276939,2.544893165761134e-06
74,32.108672252529395,2.5336093953497955e-06
75,32.244715686585415,2.5064709313902257e-06
76,32.38077272634541,2.4846788679578484e-06
77,32.51682976610541,2.472839278296208e-06
78,32.652886805865414,2.4649038101247522e-06
79,32.78893023992144,2.4571652444684533e-06
80,32.92498727968144,2.4336225654696835e-06
81,33.06104431944144,2.4135427700870676e-06
82,33.19710135920144,2.40175559227005e-06
83,33.33314479325746,2.391773304437843e-06
84,33.46920183301746,2.3781277706846744e-06
85,33.60525887277746,2.3652533692117097e-06
86,33.74131591253746,2.344513664129669e-06
87,33.87735934659349,2.3329692462437506e-06
88,34.01341638635349,2.3211757145940845e-06
89,34.14947342611349,2.2896398355450706e-06
90,34.285530465873485,2.2851961640696903e-06
91,34.421573899929506,2.2736318046703333e-06
92,34.55763093968951,2.2684150525175402e-06
93,34.69368797944951,2.2507387498238003e-06
94,34.82974501920951,2.2322917227834907e-06
95,34.96578845326554,2.2080316329318737e-06
96,35.101845493025536,2.197746644188312e-06
97,35.23790253278553,2.1769337049868037e-06
98,35.37395957254554,2.1858791927378746e-06
99,35.51000300660156,2.165906272369438e-06
100,35.646060046361555,2.129122066025247e-06
101,35.78211708612156,2.1229490886959284e-06
102,35.918174125881556,2.1103087542439693e-06
103,36.054217559937584,2.096633741844385e-06
104,36.19027459969758,2.0888401772791894e-06
105,36.326331639457585,2.068228474982773e-06
106,36.46238867921758,2.046666317079452e-06
107,36.59844571897758,2.0358862201802082e-06
108,36.73448915303361,2.023532544014909e-06
109,36.870546192793604,2.0133010889073637e-06
110,37.00660323255361,1.9975335197815176e-06
111,37.142660272313606,1.9719236330751295e-06
112,37.27870370636963,1.9503672461462076e-06
113,37.41476074612963,1.9492563408397605e-06
114,37.55081778588963,1.9377892133107514e-06
115,37.686874825649625,1.931834598681049e-06
116,37.82291825970565,1.9126861543595844e-06
117,37.958975299465656,1.8880722350050409e-06
118,38.095032339225654,1.8684270357364269e-06
119,38.23108937898566,1.85414474136848e-06
120,38.36713281304168,1.8434762628858443e-06
121,38.503189852801675,1.846938887797998e-06
122,38.63924689256167,1.832952992257128e-06
123,38.77530393232168,1.8030675020255198e-06
124,38.911347366377704,1.7822938081229581e-06
125,39.0474044061377,1.772133061057319e-06
126,39.183461445897706,1.7591874702515172e-06
127,39.3195184856577,1.748827698119267e-06
128,39.45556191971372,1.7418290594398863e-06
129,39.59161895947372,1.7232605396930406e-06
130,39.727675999233725,1.7106337800809517e-06
131,39.86373303899372,1.690027343242222e-06
132,39.99977647304975,1.6779321025125647e-06
133,40.135833512809754,1.666211676320215e-06
134,40.27189055256975,1.6564827308608199e-06
135,40.407947592329755,1.6493270614911754e-06
136,40.54399102638577,1.6244491327751027e-06
137,40.68004806614577,1.611897546798554e-06
138,40.81610510590577,1.6020158347284004e-06
139,40.952162145665774,1.1001418832241178e-06
140,41.0882055797218,1.094610976471837e-06
141,41.2242626194818,1.0898786541063814e-06
142,41.3603196592418,1.087317992771513e-06
143,41.4963766990018,1.0704121735887995e-06
144,41.63242013305782,1.06187737535376e-06
145,41.76847717281782,1.0544893295337266e-06
146,41.90453421257782,1.0414095790470732e-06
147,42.04059125233782,1.0351881532713787e-06
148,42.17663468639385,1.0306633648761449e-06
149,42.31269172615385,1.023696083907022e-06
150,42.44874876591385,1.01714987035134e-06
151,42.584805805673845,1.0008419906850939e-06
152,42.720849239729866,9.938394472909175e-07
153,42.85690627948987,9.866324254572676e-07
154,42.99296331924987,9.798192065742368e-07
155,43.12902035900987,9.738684451170099e-07
156,43.2650637930659,9.688429014980086e-07
157,43.401120832825896,9.635612155492113e-07
158,43.53717787258589,9.564631764984792e-07
159,43.67323491234589,9.435952738493824e-07
160,43.80927834640192,9.370558109461214e-07
161,43.945335386161915,9.294731595313434e-07
162,44.08139242592192,9.231837317991747e-07
163,44.217449465681916,9.178499461594328e-07
164,44.353492899737944,9.093517630324462e-07
165,44.48954993949794,9.035419946669595e-07
166,44.62560697925794,8.958493511621572e-07
167,44.761664019017935,8.903012784595241e-07
168,44.89770745307396,8.858524787642003e-07
169,45.03376449283397,8.771203093717806e-07
170,45.169821532593964,8.725026873406188e-07
171,45.30587857235397,8.640069009992757e-07
172,45.44192200640999,8.593456263914567e-07
173,45.577979046169986,8.512571737225925e-07
174,45.71403608592998,8.469106201642782e-07
175,45.85009312568999,8.430793499998603e-07
176,45.986136559746015,8.349722622617457e-07
177,46.12219359950601,8.30934894531655e-07
178,46.258250639266016,8.230431879091662e-07
179,46.394307679026014,8.192239038654577e-07
180,46.53035111308204,8.1147725905729e-07
181,46.66640815284203,8.080277680678918e-07
182,46.802465192602035,8.00255115498238e-07
183,46.93852223236203,7.970874690754424e-07
184,47.07456566641806,7.954527192527239e-07
185,47.210622706178064,7.863896144849282e-07
186,47.34667974593806,7.847093170095173e-07
187,47.482736785698066,7.760098078616506e-07
188,47.618780219754086,7.744043851568206e-07
189,47.75483725951408,7.655372524627742e-07
190,47.89089429927408,7.642124183158695e-07
191,48.026951339034085,7.556945583507932e-07
192,48.16299477309011,7.545179889429899e-07
193,48.29905181285011,7.462793348284903e-07
194,48.43506041766452,7.632544925114818e-07
195,48.43515728755569,7.632560190168477e-07
196,48.57116589237011,7.54748894611212e-07
197,48.707222932130115,7.544323563075272e-07
198,48.84326636618613,7.454954187770249e-07
199,48.97932340594613,7.455333222134373e-07
200,49.11538044570613,7.361671112390107e-07
201,49.251437485466134,7.371044482158315e-07
202,49.38748091952216,7.274006004644667e-07
203,49.52353795928216,7.290833647902546e-07
204,49.65959499904216,7.194155064176849e-07
205,49.79565203880216,7.217152202775187e-07
206,49.93169547285818,7.116719453809582e-07
207,50.06775251261818,7.14800876789918e-07
208,50.20380955237818,7.044429990375426e-07
209,50.33986659213818,7.08345009461328e-07
210,50.47591002619421,6.977783134047369e-07
211,50.61196706595421,6.884407197694442e-07
212,50.74802410571421,6.913547071308708e-07
213,50.884081145474205,6.817654378264357e-07
214,51.02007355950089,6.857464778585415e-07
215,51.02017559955957,6.857478493503086e-07
216,51.15618161929023,6.844774535435835e-07
217,51.29223865905023,6.894068415654879e-07
218,51.42829569881023,6.788802384091293e-07
219,51.56433913286626,6.850053735893869e-07
220,51.700396172626256,6.736208581064461e-07
221,51.83645321238625,6.808182413783015e-07
222,51.97251025214625,6.692990291017932e-07
223,52.10855368620228,6.589979036781904e-07
224,52.24455848141958,6.657867454547245e-07
225,52.244662970504976,6.657880770278131e-07
226,52.38066776572228,6.602513922683191e-07
227,52.516724805482276,6.684463358418121e-07
228,52.652768239538304,6.568273890597141e-07
229,52.7888252792983,6.661028937808389e-07
230,52.92482939423041,6.579092090394104e-07
231,52.924935243886196,6.57910524857791e-07
232,53.060939358818295,6.46991438863805e-07
233,53.19698279287432,6.560989562442803e-07
234,53.33303983263433,6.444888429381456e-07
235,53.469096872394324,6.551726852139819e-07
236,53.60515391215433,6.428472353867442e-07
237,53.74119734621035,6.318090836373386e-07
238,53.877254385970346,6.422269878390473e-07
239,54.01331142573034,6.304123128684744e-07
240,54.14936846549035,6.424656176507573e-07
241,54.285411899546375,6.297595450610884e-07
242,54.55752597906638,6.300839182246761e-07
243,61.36021469861866,4.6807464151337e-07
244,68.16288981246697,4.5415721505837766e-07
245,74.96557853201926,4.414935225644461e-07
246,81.76825364586757,4.282008670913016e-07
247,88.57094236541987,4.152308703490902e-07
248,95.37363108497215,4.0278597713675155e-07
249,102.17630619882047,3.911204815521818e-07
250,108.97899491837275,3.802963104795995e-07
251,115.78168363792504,3.7026921469233074e-07
252,122.58435875177334,3.6108838951887967e-07
253,129.38704747132562,3.528103926722955e-07
254,136.05367915111793,3.4564966861655066e-07
255,136.1897361908779,3.455152311961187e-07
256,204.0805119238249,3.293149145765696e-07
257,272.10735830223587,3.676769504267289e-07
258,340.1341910749428,4.052821816107044e-07
259,408.1610238476498,4.4401917953315813e-07
260,476.18787022606074,4.874669772720645e-07
261,544.2147029987677,5.346006996778953e-07
262,612.2415493771787,5.83495793491575e-07
263,680.2683821498856,6.321980003092661e-07
264,748.2952149225927,6.79360253590439e-07
265,816.3220613010035,7.25176443140747e-07
266,884.3488940737104,7.698079551751534e-07
267,952.3757404521215,8.133794366743189e-07
268,1020.4025732248285,8.559901007980554e-07
269,1088.4294196032395,8.977209945150399e-07
270,1156.4562523759464,9.386396136364908e-07
271,1224.4830851486533,9.788031878673254e-07
272,1292.5099315270643,1.0182609008935572e-06
273,1360.5367642997712,1.057055491267791e-06
274,1496.590443450889,1.1328013004423435e-06
275,1632.644122602007,1.2062938093814845e-06
276,1768.697801753125,1.2777370836728508e-06
277,1904.7514672985392,1.3472993374738165e-06
278,2040.805146449657,1.4151217973291689e-06
279,2176.8588256007747,1.4813247556798191e-06
280,2312.912504751893,1.5460119915089735e-06
281,2448.966183903011,1.6092739862490244e-06
282,2585.0198630541286,1.6711903562470765e-06
283,2721.0735285995424,1.7318317150817775e-06
284,2857.1272077506605,1.7912611704543233e-06
285,2993.180886901778,1.8495354352312236e-06
286,3129.2345660528963,1.9067057923835648e-06
287,3265.288245204014,1.96281885014012e-06
288,3401.3419107494283,2.0179171550063712e-06
289,3537.3955899005464,2.0720397433760696e-06
290,3673.4492690516645,2.125222525801554e-06
291,3809.502948202782,2.1774986831359156e-06
292,3945.5566273539002,2.228898971720951e-06
293,4081.610306505018,2.2794519854919903e-06
294,4217.663972050432,2.329184375182673e-06
295,4353.717651201549,2.378121079716474e-06
296,4489.771330352668,2.4262854454904596e-06
297,4625.825009503786,2.4736994108193874e-06
298,4761.878688654903,2.5203836274650834e-06
299,4897.932354200318,2.5663575674485163e-06
300,5033.986033351435,2.6116396538712253e-06
301,5170.039712502553,2.6562473099018085e-06
302,5306.0933916536715,2.700197065066204e-06
303,5442.147070804789,2.7435046212751987e-06
304,5578.200749955907,2.7861849170694668e-06
305,5714.254415501321,2.8282521782120158e-06
306,5850.308094652439,2.869719995869559e-06
307,5986.361773803556,2.9106013358848593e-06
308,6122.415452954675,2.950908604213292e-06
309,6258.469132105793,2.9906536825485173e-06
310,6394.522797651206,3.0298479539715455e-06
311,6530.576476802325,3.0685023624261806e-06
312,6666.630155953442,3.106627404002375e-06
313,6802.68383510456,3.1442331772529383e-06
314,6938.737514255678,3.181329402879159e-06
315,7074.791179801093,3.2179254395962724e-06
316,7210.8448589522095,3.2540303306433412e-06
317,7346.898538103329,3.289652783534314e-06
318,7482.952217254446,3.3248012162493065e-06
319,7619.005896405564,3.3594837621780056e-06
320,7755.059575556682,3.393708290665933e-06
321,7891.113241102096,3.4274824110063676e-06
322,8027.166920253213,3.4608135134865063e-06
323,8163.220599404332,3.493708739521109e-06
324,8299.27427855545,3.5261750251334366e-06
325,8435.327957706568,3.5582190972421763e-06
326,8571.38162325198,3.589847484180593e-06
327,8707.435302403099,3.621066544087328e-06
328,8843.488981554217,3.6518824402374356e-06
329,8979.542660705336,3.682301173955746e-06
330,9115.596339856453,3.712328582635912e-06
331,9251.650019007571,3.741970350031036e-06
332,9387.703684552984,3.771232006017246e-06
333,9523.757363704102,3.8001189555428885e-06
334,9659.81104285522,3.828636452206195e-06
335,9795.86472200634,3.856789622699312e-06
336,9931.918401157456,3.8845834713133665e-06
337,10067.97206670287,3.9120228764860855e-06
338,10204.025745853987,3.9391126153103756e-06
339,10340.079425005106,3.9658573412788066e-06
340,10476.133104156224,3.992261604261275e-06
341,10612.186783307343,4.0183298548419366e-06
342,10748.24046245846,4.044066441283839e-06
343,10884.294128003874,4.069475613502576e-06
344,11020.34780715499,4.094561545411587e-06
345,11156.40148630611,4.1193283074515575e-06
346,11292.455165457228,4.143779886699213e-06
347,11428.508844608346,4.1679201931936404e-06
348,11564.562510153759,4.191753046906546e-06
349,11700.616189304877,4.215282209871924e-06
350,11836.669868455994,4.238511353124226e-06
351,11972.723547607113,4.2614440813207406e-06
352,12108.777226758231,4.284083927317137e-06
353,12244.83090590935,4.30643436114191e-06
354,12380.884571454762,4.328498778112529e-06
355,12516.938250605881,4.350280526158274e-06
356,12652.991929756998,4.371782879291975e-06
357,12789.045608908116,4.3930090534571435e-06
358,12925.099288059235,4.413962210236637e-06
359,13061.15295360465,4.434645448396946e-06
360,13197.206632755768,4.455061825322245e-06
361,13333.260311906884,4.475214336065669e-06
362,13469.313991058003,4.495105923143587e-06
363,13605.36767020912,4.514739482386011e-06
364,16326.441198808663,4.857293770657446e-06
365,19047.514727408205,5.116773329403393e-06
366,21768.58826961345,5.307965364341402e-06
367,24489.661798212994,5.442476335928658e-06
368,27210.735326812537,5.529691329002599e-06
369,29931.808869017783,5.577380297584758e-06
370,32652.882397617326,5.592102482250404e-06
371,35373.95592621687,5.579482325830252e-06
372,38095.029468422115,5.544397379419658e-06
373,40816.10299702166,5.491106880257749e-06
374,43537.1765392269,5.423337059410638e-06
375,46258.25006782645,5.344351332075366e-06
376,48979.32359642599,5.25698541066954e-06
377,51700.39713863123,5.163681397627732e-06
378,54421.47066723078,5.066528583804471e-06
379,57142.54419583032,4.967278413685667e-06
380,59863.617738035566,4.867398028244808e-06
381,62584.691266635105,4.768050836905734e-06
382,65305.76479523465,4.670164225919782e-06
383,68026.8383374399,4.5744463627507186e-06
384,70747.91186603945,4.48143638659687e-06
385,73468.98539463898,4.391483829454144e-06
386,76190.05893684423,4.304834274494351e-06
387,78911.13246544376,4.221607555878827e-06
388,81632.20599404332,4.141886179646092e-06
389,84353.27953624855,4.065640219777147e-06
390,87074.35306484811,3.992817684564103e-06
391,89795.42659344764,3.9233328699433955e-06
392,92516.5001356529,3.857076053528739e-06
393,95237.57366425243,3.793882246287067e-06
394,97958.64719285197,3.733507426300734e-06
395,100679.72073505721,3.6757525658017343e-06
396,103400.79426365678,3.6204375840095648e-06
397,106121.86779225631,3.5673991046291075e-06
398,108842.94133446156,3.516488523804161e-06
399,111564.0148630611,3.46757034357631e-06
400,114285.08839166064,3.4205207319439475e-06
401,117006.16193386588,3.37522626832231e-06
402,119727.23546246543,3.331582851181759e-06
403,122448.30900467066,3.289494739927629e-06
404,125169.38253327021,3.2488737156599975e-06
405,127890.45606186974,3.209638344916896e-06
406,130611.529604075,3.1717133222003596e-06
407,133332.60313267456,3.135028895066397e-06
408,136053.6766612741,3.099520352355429e-06
409,138774.75020347934,3.065127565841215e-06
410,141495.8237320789,3.0317945827074453e-06
411,144216.89726067844,2.999469265712904e-06
412,146937.97080288368,2.968102963287437e-06
413,149659.04433148322,2.9376502179304733e-06
414,156461.72816658777,2.865242668690683e-06
415,163264.4120016923,2.7976913718274598e-06
416,170067.0958367969,2.7344876189057124e-06
417,176869.77965829574,2.6751936599300805e-06
418,183672.4634934003,2.6194305251682965e-06
419,190475.14732850486,2.5668683022180995e-06
420,197277.83116360943,2.5172182980843542e-06
421,204080.51499871397,2.470226681204447e-06
422,210883.19883381855,2.4256692743795204e-06
423,217685.88266892312,2.3833472653089006e-06
424,224488.56649042197,2.343083652009396e-06
425,231291.25032552652,2.3047202738673146e-06
426,238093.93416063106,2.2681153234130058e-06
427,244896.61799573564,2.2331412433459e-06
428,251699.30183084018,2.1996829482898876e-06
429,258501.98566594475,2.1676363060927683e-06
430,265304.6695010493,2.136906839941874e-06
431,272107.3533225482,2.1074086138771646e-06
432,278910.0371576527,2.079063268033142e-06
433,285712.7209927573,2.0517991881585802e-06
434,292515.4048278619,2.0255507777934642e-06
435,299318.08866296645,2.000257828649182e-06
436,306120.77249807096,1.9758649682338145e-06
437,312923.45633317553,1.9523211711536655e-06
438,319726.1401682801,1.9295793351000492e-06
439,326528.82398977893,1.907595903003355e-06
440,333331.50782488356,1.8863305268473885e-06
441,340134.1916599881,1.865745774796716e-06
442,346936.87549509265,1.8458068639234662e-06
443,353739.5593301972,1.826481428006211e-06
444,360542.24316530174,1.8077393046913181e-06
445,367344.9270004063,1.7895523483312527e-06
446,374147.6108219052,1.771894261534396e-06
447,380950.2946570097,1.754740440963439e-06
448,387752.9784921143,1.7380678414345064e-06
