,E (eV),I (erg/s/cm**2)
0,1.360543186192048,0.00018382731198719006
1,2.0408011735840956,0.000194026328604425
2,2.7210727666801198,0.00020285506478303367
3,3.401344359776144,0.00021555875284221522
4,4.081615952872168,0.000246811558850625
5,4.761873940264215,0.0002732784524136431
6,5.4421455333602395,0.0002841603884511728
7,6.122417126456264,0.0002807289560883235
8,6.802688719552288,0.00027097369193095034
9,7.482946706944335,0.00024533332024025595
10,8.16321830004036,0.00022139999796003657
11,8.843489893136384,0.00019565090267234828
12,9.523761486232408,0.0001620189410789945
13,10.204019473624456,8.343257285855871e-05
14,10.884291066720479,7.759888927415317e-05
15,11.564562659816504,5.046904737417884e-05
16,12.244834252912527,3.643181927315456e-05
17,12.92510584600855,1.61095233816419e-05
18,13.7414208731606,5.118227792434649e-06
19,14.421692466256623,4.911830894164557e-06
20,15.101964059352648,4.745509109350145e-06
21,15.782222046744696,4.600309711006062e-06
22,16.46249363984072,4.4708961666344375e-06
23,17.142765232936743,4.328927796243543e-06
24,17.823036826032766,4.242501093818821e-06
25,18.503294813424816,4.1053322464056735e-06
26,19.18356640652084,4.015929941006929e-06
27,19.863837999616862,3.909900413218988e-06
28,20.544109592712886,3.840002397026404e-06
29,21.224367580104932,3.753838118085209e-06
30,21.90463917320096,3.6714926069025636e-06
31,22.584910766296982,3.594313689874581e-06
32,23.26518235939301,3.5242853641973626e-06
33,23.945440346785055,3.4512295825487423e-06
34,24.62571193988108,3.3645317016486212e-06
35,25.305983532977105,3.302429153422097e-06
36,25.986255126073125,3.2241522328970514e-06
37,26.66652671916915,3.1640607575326763e-06
38,27.210741272505174,3.1260999138780212e-06
39,27.3467847065612,3.127647984671948e-06
40,27.4828417463212,3.116796504282343e-06
41,27.618898786081196,3.090744286080543e-06
42,27.7549558258412,3.0730242420909863e-06
43,27.89099925989722,3.069797945349498e-06
44,28.02705629965722,3.065778761977452e-06
45,28.16311333941722,3.05318538879227e-06
46,28.299170379177223,3.0341858321348675e-06
47,28.435213813233247,3.020096081318422e-06
48,28.571270852993244,3.022848770558598e-06
49,28.70732789275325,3.0114833490235542e-06
50,28.843384932513246,2.9872117140278842e-06
51,28.97942836656927,2.9768324818959233e-06
52,29.115485406329267,2.954581425837778e-06
53,29.25154244608927,2.969013618629883e-06
54,29.387599485849268,2.9491219113957556e-06
55,29.523642919905292,2.923157659695255e-06
56,29.659699959665296,2.910026081817451e-06
57,29.795756999425294,2.9196161131999577e-06
58,29.931814039185298,2.8969393588931048e-06
59,30.067857473241315,2.8812603949315867e-06
60,30.20391451300132,2.861613802066742e-06
61,30.339971552761316,2.8480403679538265e-06
62,30.47602859252132,2.8474152762524565e-06
63,30.612072026577344,2.8329076783509814e-06
64,30.74812906633734,2.814850060415005e-06
65,30.884186106097346,2.797555664252655e-06
66,31.020243145857343,2.779835053514988e-06
67,31.156286579913367,2.765003476636999e-06
68,31.292343619673364,2.766777709850648e-06
69,31.42840065943337,2.7457502641758775e-06
70,31.564457699193365,2.7198388595716374e-06
71,31.70050113324939,2.707037522339112e-06
72,31.836558173009394,2.7034369464226366e-06
73,31.97261521276939,2.6935812913535443e-06
74,32.108672252529395,2.6698898822189305e-06
75,32.244715686585415,2.650579132201724e-06
76,32.38077272634541,2.6459177238485893e-06
77,32.51682976610541,2.6346993524024488e-06
78,32.652886805865414,2.6062263882008994e-06
79,32.78893023992144,2.5984985103218883e-06
80,32.92498727968144,2.5867144697201796e-06
81,33.06104431944144,2.578351516043022e-06
82,33.19710135920144,2.555884432653817e-06
83,33.33314479325746,2.5321170853997486e-06
84,33.46920183301746,2.5105382387843715e-06
85,33.60525887277746,2.511619664049345e-06
86,33.74131591253746,2.5018869148056896e-06
87,33.87735934659349,2.4868515509676107e-06
88,34.01341638635349,2.4614324308556968e-06
89,34.14947342611349,2.439122037704236e-06
90,34.285530465873485,2.4233404904037385e-06
91,34.421573899929506,2.4164042452626136e-06
92,34.55763093968951,2.4055938060667603e-06
93,34.69368797944951,2.3905543872295055e-06
94,34.82974501920951,2.370554830481965e-06
95,34.96578845326554,2.3559785588761547e-06
96,35.101845493025536,2.343936473726549e-06
97,35.23790253278553,2.3253128409851243e-06
98,35.37395957254554,2.3084307110430233e-06
99,35.51000300660156,2.3018964168562504e-06
100,35.646060046361555,2.2780731090483707e-06
101,35.78211708612156,2.2763127282327567e-06
102,35.918174125881556,2.25757671076273e-06
103,36.054217559937584,2.2184480305205112e-06
104,36.19027459969758,2.208396077192508e-06
105,36.326331639457585,2.197722973476628e-06
106,36.46238867921758,2.1909902878594635e-06
107,36.59844571897758,2.1851971754179018e-06
108,36.73448915303361,2.1706274739783574e-06
109,36.870546192793604,2.1326597681951133e-06
110,37.00660323255361,2.119746325784272e-06
111,37.142660272313606,2.1082103550449016e-06
112,37.27870370636963,2.100148899717485e-06
113,37.41476074612963,2.09225670273447e-06
114,37.55081778588963,2.068079370103957e-06
115,37.686874825649625,2.0432627551875666e-06
116,37.82291825970565,2.0302169479860372e-06
117,37.958975299465656,2.018251538334531e-06
118,38.095032339225654,2.0071530440537366e-06
119,38.23108937898566,1.994034872944099e-06
120,38.36713281304168,1.9667870019846116e-06
121,38.503189852801675,1.9571472908029594e-06
122,38.63924689256167,1.942438325288117e-06
123,38.77530393232168,1.9303512383947264e-06
124,38.911347366377704,1.9183309245343756e-06
125,39.0474044061377,1.912424727643797e-06
126,39.183461445897706,1.896599089000292e-06
127,39.3195184856577,1.8677491397885133e-06
128,39.45556191971372,1.8467415968114338e-06
129,39.59161895947372,1.8342078233107354e-06
130,39.727675999233725,1.8319868759973702e-06
131,39.86373303899372,1.8207849625719953e-06
132,39.99977647304975,1.8111621053526727e-06
133,40.135833512809754,1.7855180951018023e-06
134,40.27189055256975,1.7718469226773103e-06
135,40.407947592329755,1.749913158567919e-06
136,40.54399102638577,1.7376379460116028e-06
137,40.68004806614577,1.7264724392208198e-06
138,40.81610510590577,1.7147519158037384e-06
139,40.952162145665774,1.18389556816433e-06
140,41.0882055797218,1.164368983633012e-06
141,41.2242626194818,1.1568847854266446e-06
142,41.3603196592418,1.1415560141835505e-06
143,41.4963766990018,1.1342716036208939e-06
144,41.63242013305782,1.128973865762569e-06
145,41.76847717281782,1.1230226978239078e-06
146,41.90453421257782,1.1204183292667576e-06
147,42.04059125233782,1.1040445879646958e-06
148,42.17663468639385,1.0951878480980456e-06
149,42.31269172615385,1.0873916531473628e-06
150,42.44874876591385,1.0742311101943833e-06
151,42.584805805673845,1.06753675586826e-06
152,42.720849239729866,1.0629581782643197e-06
153,42.85690627948987,1.0553951458191268e-06
154,42.99296331924987,1.0484111790465855e-06
155,43.12902035900987,1.0328771127893685e-06
156,43.2650637930659,1.0253317085967034e-06
157,43.401120832825896,1.0175367633308293e-06
158,43.53717787258589,1.0101420441529434e-06
159,43.67323491234589,1.0039703555343037e-06
160,43.80927834640192,9.983796260917022e-07
161,43.945335386161915,9.929392315408222e-07
162,44.08139242592192,9.851154090652988e-07
163,44.217449465681916,9.738483069713886e-07
164,44.353492899737944,9.672736008717627e-07
165,44.48954993949794,9.591439793557014e-07
166,44.62560697925794,9.531006994886741e-07
167,44.761664019017935,9.483987316900928e-07
168,44.89770745307396,9.392103009724392e-07
169,45.03376449283397,9.343115566533401e-07
170,45.169821532593964,9.249864904912328e-07
171,45.30587857235397,9.197983638110785e-07
172,45.44192200640999,9.11193667308805e-07
173,45.577979046169986,9.059791276587587e-07
174,45.71403608592998,9.017394937293383e-07
175,45.85009312568999,8.925680203346035e-07
176,45.986136559746015,8.887868890530185e-07
177,46.12219359950601,8.798731171195831e-07
178,46.258250639266016,8.759478847748794e-07
179,46.394307679026014,8.674723053871842e-07
180,46.53035111308204,8.638014103761123e-07
181,46.66640815284203,8.609006923112912e-07
182,46.802465192602035,8.517220624691432e-07
183,46.93852223236203,8.490856088513758e-07
184,47.07456566641806,8.400091313684968e-07
185,47.210622706178064,8.376006591101683e-07
186,47.34667974593806,8.283299046773072e-07
187,47.482736785698066,8.2656703734981e-07
188,47.618780219754086,8.170676367341992e-07
189,47.75483725951408,8.15394001897739e-07
190,47.89089429927408,8.058691144403546e-07
191,48.026951339034085,8.048045240807591e-07
192,48.16299477309011,7.950865022246157e-07
193,48.29905181285011,7.944334450944163e-07
194,48.43506041766452,8.040908671463584e-07
195,48.43515728755569,8.040924753242799e-07
196,48.57116589237011,8.036945633795882e-07
197,48.707222932130115,7.940718255028025e-07
198,48.84326636618613,7.938403462391888e-07
199,48.97932340594613,7.841287262654198e-07
200,49.11538044570613,7.839721679805096e-07
201,49.251437485466134,7.7455698136755e-07
202,49.38748091952216,7.746397741527834e-07
203,49.52353795928216,7.651285177496784e-07
204,49.65959499904216,7.66025537521728e-07
205,49.79565203880216,7.562797012041877e-07
206,49.93169547285818,7.57666958988408e-07
207,50.06775251261818,7.480360983737695e-07
208,50.20380955237818,7.499769357867383e-07
209,50.33986659213818,7.400863771785082e-07
210,50.47591002619421,7.42777921976399e-07
211,50.61196706595421,7.324159913502288e-07
212,50.74802410571421,7.358565353304363e-07
213,50.884081145474205,7.252612473160707e-07
214,51.02007355950089,7.299107470426146e-07
215,51.02017559955957,7.299122068628435e-07
216,51.15618161929023,7.282794339599844e-07
217,51.29223865905023,7.338700275458297e-07
218,51.42829569881023,7.221610023349204e-07
219,51.56433913286626,7.287696772737985e-07
220,51.700396172626256,7.164854164442274e-07
221,51.83645321238625,7.058459452188673e-07
222,51.97251025214625,7.117722836494963e-07
223,52.10855368620228,7.005241757181533e-07
224,52.24455848141958,7.078646368964714e-07
225,52.244662970504976,7.078660526253174e-07
226,52.38066776572228,7.017876218914744e-07
227,52.516724805482276,7.104828261708169e-07
228,52.652768239538304,6.978755339554742e-07
229,52.7888252792983,6.866613706641095e-07
230,52.92482939423041,6.988551083718277e-07
231,52.924935243886196,6.988565060820046e-07
232,53.060939358818295,6.870521054343525e-07
233,53.19698279287432,6.967351438970391e-07
234,53.33303983263433,6.841998187013851e-07
235,53.469096872394324,6.954048405354974e-07
236,53.60515391215433,6.821948302136183e-07
237,53.74119734621035,6.703167661849526e-07
238,53.877254385970346,6.811751509488822e-07
239,54.01331142573034,6.6854235776392e-07
240,54.14936846549035,6.810254370832576e-07
241,54.285411899546375,6.674352470473185e-07
242,54.55752597906638,6.673004125680194e-07
243,61.36021469861866,4.93700229332955e-07
244,68.16288981246697,4.785138095249825e-07
245,74.96557853201926,4.6481528754346545e-07
246,81.76825364586757,4.505104387990077e-07
247,88.57094236541987,4.365731971842573e-07
248,95.37363108497215,4.232384946291164e-07
249,102.17630619882047,4.107662401027463e-07
250,108.97899491837275,3.9920380586104013e-07
251,115.78168363792504,3.8849383428914056e-07
252,122.58435875177334,3.786679422215008e-07
253,129.38704747132562,3.697799614023699e-07
254,136.05367915111793,3.6204772275000213e-07
255,136.1897361908779,3.618987451580423e-07
256,204.0805119238249,3.4240198609512175e-07
257,272.10735830223587,3.817870036081732e-07
258,340.1341910749428,4.205389921330922e-07
259,408.1610238476498,4.6017134167048467e-07
260,476.18787022606074,5.046708884269829e-07
261,544.2147029987677,5.53171281851704e-07
262,612.2415493771787,6.036865447463883e-07
263,680.2683821498856,6.541017850072872e-07
264,748.2952149225927,7.029227132141905e-07
265,816.3220613010035,7.503498913585914e-07
266,884.3488940737104,7.965510218071566e-07
267,952.3757404521215,8.416555304049769e-07
268,1020.4025732248285,8.85766366134208e-07
269,1088.4294196032395,9.289675801683973e-07
270,1156.4562523759464,9.713291365942204e-07
271,1224.4830851486533,1.0129103344318668e-06
272,1292.5099315270643,1.053762118343028e-06
273,1360.5367642997712,1.093928744219169e-06
274,1496.590443450889,1.172357657351105e-06
275,1632.644122602007,1.2484591192374822e-06
276,1768.697801753125,1.3224442601733505e-06
277,1904.7514672985392,1.3944870724944329e-06
278,2040.805146449657,1.4647336027748338e-06
279,2176.8588256007747,1.5333082272251086e-06
280,2312.912504751893,1.6003182319826121e-06
281,2448.966183903011,1.6658571420029091e-06
282,2585.0198630541286,1.7300072420300432e-06
283,2721.0735285995424,1.792841504141809e-06
284,2857.1272077506605,1.8544251358334821e-06
285,2993.180886901778,1.9148167302716293e-06
286,3129.2345660528963,1.974069267450565e-06
287,3265.288245204014,2.0322308906942674e-06
288,3401.3419107494283,2.0893455445932704e-06
289,3537.3955899005464,2.145453544374825e-06
290,3673.4492690516645,2.2005919734842358e-06
291,3809.502948202782,2.2547950941445883e-06
292,3945.5566273539002,2.3080946613095893e-06
293,4081.610306505018,2.360520193477728e-06
294,4217.663972050432,2.4120992041416466e-06
295,4353.717651201549,2.4628574335002863e-06
296,4489.771330352668,2.5128189787515795e-06
297,4625.825009503786,2.562006481003495e-06
298,4761.878688654903,2.610441250184708e-06
299,4897.932354200318,2.6581433795724727e-06
300,5033.986033351435,2.7051318775759524e-06
301,5170.039712502553,2.7514247188202194e-06
302,5306.0933916536715,2.7970389553112694e-06
303,5442.147070804789,2.8419907840781202e-06
304,5578.200749955907,2.886295613582972e-06
305,5714.254415501321,2.9299681146515243e-06
306,5850.308094652439,2.9730223053535504e-06
307,5986.361773803556,3.0154715544483457e-06
308,6122.415452954675,3.0573286544607405e-06
309,6258.469132105793,3.0986058565018136e-06
310,6394.522797651206,3.139314896030547e-06
311,6530.576476802325,3.179467055079265e-06
312,6666.630155953442,3.219073153887387e-06
313,6802.68383510456,3.2581436015088244e-06
314,6938.737514255678,3.2966884160978328e-06
315,7074.791179801093,3.334717245080962e-06
316,7210.8448589522095,3.3722394064799688e-06
317,7346.898538103329,3.409263873936073e-06
318,7482.952217254446,3.445799320686125e-06
319,7619.005896405564,3.48185412856086e-06
320,7755.059575556682,3.517436404495922e-06
321,7891.113241102096,3.5525539894087645e-06
322,8027.166920253213,3.5872144942123033e-06
323,8163.220599404332,3.6214252786263188e-06
324,8299.27427855545,3.6551934838575564e-06
325,8435.327957706568,3.688526041993139e-06
326,8571.38162325198,3.721429675180066e-06
327,8707.435302403099,3.753910932574727e-06
328,8843.488981554217,3.7859761613641196e-06
329,8979.542660705336,3.817631540818322e-06
330,9115.596339856453,3.8488830837177895e-06
331,9251.650019007571,3.879736642635386e-06
332,9387.703684552984,3.910197910493269e-06
333,9523.757363704102,3.9402724532406574e-06
334,9659.81104285522,3.969965679761372e-06
335,9795.86472200634,3.999282868081356e-06
336,9931.918401157456,4.028229170018568e-06
337,10067.97206670287,4.056809607581716e-06
338,10204.025745853987,4.085029099305574e-06
339,10340.079425005106,4.1128924343441846e-06
340,10476.133104156224,4.14040429787081e-06
341,10612.186783307343,4.167569268935884e-06
342,10748.24046245846,4.1943918249026974e-06
343,10884.294128003874,4.220876338871528e-06
344,11020.34780715499,4.247027107638097e-06
345,11156.40148630611,4.272848318326484e-06
346,11292.455165457228,4.298344077059801e-06
347,11428.508844608346,4.323518405698987e-06
348,11564.562510153759,4.348375237179247e-06
349,11700.616189304877,4.3729184418917855e-06
350,11836.669868455994,4.397151797339126e-06
351,11972.723547607113,4.421079012674929e-06
352,12108.777226758231,4.444703725111044e-06
353,12244.83090590935,4.468029502068802e-06
354,12380.884571454762,4.491059840079203e-06
355,12516.938250605881,4.513798182885442e-06
356,12652.991929756998,4.53624789902568e-06
357,12789.045608908116,4.558412298290223e-06
358,12925.099288059235,4.580294632421507e-06
359,13061.15295360465,4.601898089458073e-06
360,13197.206632755768,4.62322581705711e-06
361,13333.260311906884,4.64428089437887e-06
362,13469.313991058003,4.665066349663036e-06
363,13605.36767020912,4.685585163126806e-06
364,16326.441198808663,5.044152476747696e-06
365,19047.514727408205,5.3167781501679575e-06
366,21768.58826961345,5.518675243069442e-06
367,24489.661798212994,5.661786153735363e-06
368,27210.735326812537,5.755768555826534e-06
369,29931.808869017783,5.808617915133514e-06
370,32652.882397617326,5.827083220660923e-06
371,35373.95592621687,5.816952159064556e-06
372,38095.029468422115,5.783245661033016e-06
373,40816.10299702166,5.730351285988394e-06
374,43537.1765392269,5.6621185053958575e-06
375,46258.25006782645,5.5819143226044e-06
376,48979.32359642599,5.492676947086941e-06
377,51700.39713863123,5.396959092967682e-06
378,54421.47066723078,5.2969344696621964e-06
379,57142.54419583032,5.194458040319006e-06
380,59863.617738035566,5.091050103233156e-06
381,62584.691266635105,4.987981895686993e-06
382,65305.76479523465,4.886236747706217e-06
383,68026.8383374399,4.786587019998859e-06
384,70747.91186603945,4.689630479701956e-06
385,73468.98539463898,4.595745088204295e-06
386,76190.05893684423,4.505232695687232e-06
387,78911.13246544376,4.418228094157845e-06
388,81632.20599404332,4.334840958982028e-06
389,84353.27953624855,4.2550596330084396e-06
390,87074.35306484811,4.178840193002334e-06
391,89795.42659344764,4.106103882582041e-06
392,92516.5001356529,4.0367445223711285e-06
393,95237.57366425243,3.970592517415005e-06
394,97958.64719285197,3.90739148649453e-06
395,100679.72073505721,3.846933082040255e-06
396,103400.79426365678,3.789028791044401e-06
397,106121.86779225631,3.7335075884280683e-06
398,108842.94133446156,3.6802139110864233e-06
399,111564.0148630611,3.629005916007062e-06
400,114285.08839166064,3.5797539745458294e-06
401,117006.16193386588,3.5323393557730533e-06
402,119727.23546246543,3.4866530814608426e-06
403,122448.30900467066,3.442594930427018e-06
404,125169.38253327021,3.4000725526823653e-06
405,127890.45606186974,3.359000700427801e-06
406,130611.529604075,3.3193005436894244e-06
407,133332.60313267456,3.280899063797766e-06
408,136053.6766612741,3.2437285192627e-06
409,138774.75020347934,3.2077259674576355e-06
410,141495.8237320789,3.1728328350286874e-06
411,144216.89726067844,3.1389945441988038e-06
412,146937.97080288368,3.10616016520884e-06
413,149659.04433148322,3.0742821118224694e-06
414,156461.72816658777,2.9984856473595294e-06
415,163264.4120016923,2.9277727807535325e-06
416,170067.0958367969,2.8616109866126798e-06
417,176869.77965829574,2.799542018319685e-06
418,183672.4634934003,2.7411691646114524e-06
419,190475.14732850486,2.6861470651863667e-06
420,197277.83116360943,2.634173513016927e-06
421,204080.51499871397,2.5849827925447587e-06
422,210883.19883381855,2.538340229756474e-06
423,217685.88266892312,2.49403770614155e-06
424,224488.56649042197,2.4518899324547242e-06
425,231291.25032552652,2.411731343817819e-06
426,238093.93416063106,2.3734134933671745e-06
427,244896.61799573564,2.336802853101093e-06
428,251699.30183084018,2.301778949143414e-06
429,258501.98566594475,2.2682327747299965e-06
430,265304.6695010493,2.236065429982161e-06
431,272107.3533225482,2.2051869563308856e-06
432,278910.0371576527,2.175515325584225e-06
433,285712.7209927573,2.146975570622758e-06
434,292515.4048278619,2.119499024528595e-06
435,299318.08866296645,2.0930226609869596e-06
436,306120.77249807096,2.0674885141572794e-06
437,312923.45633317553,2.042843170981944e-06
438,319726.1401682801,2.019037324420481e-06
439,326528.82398977893,1.996025377512729e-06
440,333331.50782488356,1.9737650942591928e-06
441,340134.1916599881,1.952217290258442e-06
442,346936.87549509265,1.9313455547726752e-06
443,353739.5593301972,1.9111160058649614e-06
444,360542.24316530174,1.8914970694026842e-06
445,367344.9270004063,1.8724592835337344e-06
446,374147.6108219052,1.8539751180311445e-06
447,380950.2946570097,1.8360188189529586e-06
448,387752.9784921143,1.8185662624755036e-06
