,E (eV),I (erg/s/cm**2)
0,1.360543186192048,0.00014108790391490896
1,2.0408011735840956,0.00015074627243619234
2,2.7210727666801198,0.0001602849890307145
3,3.401344359776144,0.0001731298975503913
4,4.081615952872168,0.0001944143293412917
5,4.761873940264215,0.00020978293307202274
6,5.4421455333602395,0.00021098589826655937
7,6.122417126456264,0.00020645504291662119
8,6.802688719552288,0.00018704564489786284
9,7.482946706944335,0.00017167789299001474
10,8.16321830004036,0.00015575501642416006
11,8.843489893136384,0.0001338119094694475
12,9.523761486232408,0.00011183718102606377
13,10.204019473624456,5.945719619805874e-05
14,10.884291066720479,4.7646853328918775e-05
15,11.564562659816504,3.5959709365453895e-05
16,12.244834252912527,2.4111106751197597e-05
17,12.92510584600855,1.3432605193970053e-05
18,13.7414208731606,3.5043604804435933e-06
19,14.421692466256623,3.3804849647599844e-06
20,15.101964059352648,3.2640360249938e-06
21,15.782222046744696,3.1685259271493835e-06
22,16.46249363984072,3.061002204041247e-06
23,17.142765232936743,2.989261103693047e-06
24,17.823036826032766,2.917794918879518e-06
25,18.503294813424816,2.837822857358434e-06
26,19.18356640652084,2.7651496685113442e-06
27,19.863837999616862,2.7163692286062114e-06
28,20.544109592712886,2.6495700071488548e-06
29,21.224367580104932,2.595452511665993e-06
30,21.90463917320096,2.536842487529446e-06
31,22.584910766296982,2.4792409980320803e-06
32,23.26518235939301,2.4182373172228964e-06
33,23.945440346785055,2.3548413447973176e-06
34,24.62571193988108,2.3147250563969072e-06
35,25.305983532977105,2.2555775134619126e-06
36,25.986255126073125,2.21563338858575e-06
37,26.66652671916915,2.169940353540946e-06
38,27.210741272505174,2.1363155273358137e-06
39,27.3467847065612,2.1200125814053364e-06
40,27.4828417463212,2.108450802689529e-06
41,27.618898786081196,2.0923583463967786e-06
42,27.7549558258412,2.0956200685183302e-06
43,27.89099925989722,2.0781675893531525e-06
44,28.02705629965722,2.0694612793193086e-06
45,28.16311333941722,2.0529813526742698e-06
46,28.299170379177223,2.037020831994401e-06
47,28.435213813233247,2.0373341865145417e-06
48,28.571270852993244,2.0280401436153956e-06
49,28.70732789275325,2.011640417174393e-06
50,28.843384932513246,1.9911657090695784e-06
51,28.97942836656927,1.9820003163654915e-06
52,29.115485406329267,1.9864891497893516e-06
53,29.25154244608927,1.9676958459581534e-06
54,29.387599485849268,1.948958231083434e-06
55,29.523642919905292,1.937928968332636e-06
56,29.659699959665296,1.9313566050477234e-06
57,29.795756999425294,1.924426849970705e-06
58,29.931814039185298,1.9040791212044298e-06
59,30.067857473241315,1.8949161786429047e-06
60,30.20391451300132,1.8869793439122744e-06
61,30.339971552761316,1.871293714643782e-06
62,30.47602859252132,1.8491195940015284e-06
63,30.612072026577344,1.8450924634806493e-06
64,30.74812906633734,1.8398903508408948e-06
65,30.884186106097346,1.8303616627938005e-06
66,31.020243145857343,1.8072992915088264e-06
67,31.156286579913367,1.791008789607413e-06
68,31.292343619673364,1.7796655629197102e-06
69,31.42840065943337,1.7818280665269383e-06
70,31.564457699193365,1.7647417815402697e-06
71,31.70050113324939,1.7517450783343416e-06
72,31.836558173009394,1.7331953307452054e-06
73,31.97261521276939,1.729634931819146e-06
74,32.108672252529395,1.7160624205593566e-06
75,32.244715686585415,1.695098147208416e-06
76,32.38077272634541,1.6920968857181663e-06
77,32.51682976610541,1.679426793399746e-06
78,32.652886805865414,1.6718754786185935e-06
79,32.78893023992144,1.6609717213215893e-06
80,32.92498727968144,1.6302814018424254e-06
81,33.06104431944144,1.6306147019823678e-06
82,33.19710135920144,1.6223805196268811e-06
83,33.33314479325746,1.6115055187733727e-06
84,33.46920183301746,1.6054539652619228e-06
85,33.60525887277746,1.57858986103134e-06
86,33.74131591253746,1.5635873152045172e-06
87,33.87735934659349,1.5555454675203375e-06
88,34.01341638635349,1.553041173491316e-06
89,34.14947342611349,1.543583750713829e-06
90,34.285530465873485,1.521750539460334e-06
91,34.421573899929506,1.5052455145947155e-06
92,34.55763093968951,1.4957359273579747e-06
93,34.69368797944951,1.4872937702221896e-06
94,34.82974501920951,1.4827021534448614e-06
95,34.96578845326554,1.4758539950467583e-06
96,35.101845493025536,1.453430722676844e-06
97,35.23790253278553,1.4397060928779853e-06
98,35.37395957254554,1.4295893806764382e-06
99,35.51000300660156,1.420929838085349e-06
100,35.646060046361555,1.4170872878406413e-06
101,35.78211708612156,1.405019285911024e-06
102,35.918174125881556,1.3802852699719756e-06
103,36.054217559937584,1.3725043243828744e-06
104,36.19027459969758,1.3626374890312356e-06
105,36.326331639457585,1.3560560324480438e-06
106,36.46238867921758,1.3494560335779558e-06
107,36.59844571897758,1.3393217556418677e-06
108,36.73448915303361,1.3158970016034316e-06
109,36.870546192793604,1.3008989178649175e-06
110,37.00660323255361,1.2925614434495226e-06
111,37.142660272313606,1.2895721062079338e-06
112,37.27870370636963,1.282391069135777e-06
113,37.41476074612963,1.2761462494447282e-06
114,37.55081778588963,1.2527200270475207e-06
115,37.686874825649625,1.2435469137629055e-06
116,37.82291825970565,1.2299467197789644e-06
117,37.958975299465656,1.2216496572512043e-06
118,38.095032339225654,1.2141637126722382e-06
119,38.23108937898566,1.208775150729923e-06
120,38.36713281304168,1.1913945247111665e-06
121,38.503189852801675,1.1819912644299727e-06
122,38.63924689256167,1.173432470913781e-06
123,38.77530393232168,1.1608783182694366e-06
124,38.911347366377704,1.1532558681317643e-06
125,39.0474044061377,1.1472114971979616e-06
126,39.183461445897706,1.1385618329133105e-06
127,39.3195184856577,1.11737510799957e-06
128,39.45556191971372,1.1097071496726453e-06
129,39.59161895947372,1.1049064842417544e-06
130,39.727675999233725,1.0981005719298107e-06
131,39.86373303899372,1.0903941792914762e-06
132,39.99977647304975,1.083975705506166e-06
133,40.135833512809754,1.0775486269591298e-06
134,40.27189055256975,1.0689055586370796e-06
135,40.407947592329755,1.0497014182150392e-06
136,40.54399102638577,1.040179256216337e-06
137,40.68004806614577,1.0316318240936304e-06
138,40.81610510590577,1.0230056032279064e-06
139,40.952162145665774,7.345468576839576e-07
140,41.0882055797218,7.294418550535179e-07
141,41.2242626194818,7.237991721763002e-07
142,41.3603196592418,7.178803016518459e-07
143,41.4963766990018,7.131567863824025e-07
144,41.63242013305782,7.068014111281651e-07
145,41.76847717281782,7.02100571000301e-07
146,41.90453421257782,6.960793565120853e-07
147,42.04059125233782,6.915153936486532e-07
148,42.17663468639385,6.858766126686193e-07
149,42.31269172615385,6.81427155042415e-07
150,42.44874876591385,6.756857585396949e-07
151,42.584805805673845,6.715522905541596e-07
152,42.720849239729866,6.658791012517663e-07
153,42.85690627948987,6.61935159296951e-07
154,42.99296331924987,6.563516354347415e-07
155,43.12902035900987,6.520763687083303e-07
156,43.2650637930659,6.468260095624263e-07
157,43.401120832825896,6.421419054782511e-07
158,43.53717787258589,6.375323563635117e-07
159,43.67323491234589,6.327688997640624e-07
160,43.80927834640192,6.290023259388088e-07
161,43.945335386161915,6.233935179013888e-07
162,44.08139242592192,6.198063409762396e-07
163,44.217449465681916,6.142855390522962e-07
164,44.353492899737944,6.108707409965753e-07
165,44.48954993949794,6.053716053424494e-07
166,44.62560697925794,6.021984878999241e-07
167,44.761664019017935,5.986645937181275e-07
168,44.89770745307396,5.937739387774299e-07
169,45.03376449283397,5.903858654979165e-07
170,45.169821532593964,5.852842456471443e-07
171,45.30587857235397,5.82256124238584e-07
172,45.44192200640999,5.768626814620292e-07
173,45.577979046169986,5.740864758666413e-07
174,45.71403608592998,5.688757189827331e-07
175,45.85009312568999,5.662831512030135e-07
176,45.986136559746015,5.612022305219548e-07
177,46.12219359950601,5.589280543271858e-07
178,46.258250639266016,5.536285775781809e-07
179,46.394307679026014,5.516512664603102e-07
180,46.53035111308204,5.463276219595986e-07
181,46.66640815284203,5.447501535889763e-07
182,46.802465192602035,5.391824658858003e-07
183,46.93852223236203,5.37979612146365e-07
184,47.07456566641806,5.325817171832531e-07
185,47.210622706178064,5.313862764040685e-07
186,47.34667974593806,5.259245109842919e-07
187,47.482736785698066,5.249114825671596e-07
188,47.618780219754086,5.196658063074353e-07
189,47.75483725951408,5.186353287728479e-07
190,47.89089429927408,5.134640350929014e-07
191,48.026951339034085,5.131030473168342e-07
192,48.16299477309011,5.074452136931075e-07
193,48.29905181285011,5.078065861269791e-07
194,48.43506041766452,5.121349550839919e-07
195,48.43515728755569,5.121359793514736e-07
196,48.57116589237011,5.132022432414458e-07
197,48.707222932130115,5.068511773861283e-07
198,48.84326636618613,5.083115066826416e-07
199,48.97932340594613,5.016466950422433e-07
200,49.11538044570613,5.034138277349235e-07
201,49.251437485466134,4.968497341199166e-07
202,49.38748091952216,4.908946766138693e-07
203,49.52353795928216,4.924741487920526e-07
204,49.65959499904216,4.862987336577595e-07
205,49.79565203880216,4.885020780860639e-07
206,49.93169547285818,4.819233129949243e-07
207,50.06775251261818,4.849180532185193e-07
208,50.20380955237818,4.781566748837769e-07
209,50.33986659213818,4.723115518102415e-07
210,50.47591002619421,4.7498866314803406e-07
211,50.61196706595421,4.684880346038986e-07
212,50.74802410571421,4.7206142104765516e-07
213,50.884081145474205,4.652419374642771e-07
214,51.02007355950089,4.6965483476679096e-07
215,51.02017559955957,4.696557740756465e-07
216,51.15618161929023,4.678783832012849e-07
217,51.29223865905023,4.6127247866905e-07
218,51.42829569881023,4.6566874063903987e-07
219,51.56433913286626,4.5874734096654383e-07
220,51.700396172626256,4.6393182745702796e-07
221,51.83645321238625,4.5678413964117723e-07
222,51.97251025214625,4.6291111810861296e-07
223,52.10855368620228,4.553527271741155e-07
224,52.24455848141958,4.484020182001157e-07
225,52.244662970504976,4.4840291500388116e-07
226,52.38066776572228,4.5795455903968123e-07
227,52.516724805482276,4.504809820534939e-07
228,52.652768239538304,4.5788887376860216e-07
229,52.7888252792983,4.499374434104942e-07
230,52.92482939423041,4.449158085164448e-07
231,52.924935243886196,4.4491669834803655e-07
232,53.060939358818295,4.5256732082044437e-07
233,53.19698279287432,4.44680507217445e-07
234,53.33303983263433,4.37644467785119e-07
235,53.469096872394324,4.4534051588052024e-07
236,53.60515391215433,4.3763786051631837e-07
237,53.74119734621035,4.468627338461273e-07
238,53.877254385970346,4.3856175907321775e-07
239,54.01331142573034,4.3103151030769217e-07
240,54.14936846549035,4.4038786981133224e-07
241,54.285411899546375,4.3210778390812327e-07
242,54.55752597906638,4.3402870152193374e-07
243,61.36021469861866,3.305988925744817e-07
244,68.16288981246697,3.2302037277328223e-07
245,74.96557853201926,3.155520085921173e-07
246,81.76825364586757,3.074819115269284e-07
247,88.57094236541987,2.9941341698795716e-07
248,95.37363108497215,2.9156446094308995e-07
249,102.17630619882047,2.841095576611235e-07
250,108.97899491837275,2.771703471906539e-07
251,115.78168363792504,2.7078806855875035e-07
252,122.58435875177334,2.6505462058016657e-07
253,129.38704747132562,2.6006073693925523e-07
254,136.05367915111793,2.5594450361340017e-07
255,136.1897361908779,2.5587049685016313e-07
256,204.0805119238249,2.5576269637267983e-07
257,272.10735830223587,2.8771823065688053e-07
258,340.1341910749428,3.189245025768038e-07
259,408.1610238476498,3.5228326330719064e-07
260,476.18787022606074,3.891792478540625e-07
261,544.2147029987677,4.2806555598569983e-07
262,612.2415493771787,4.6749909533466126e-07
263,680.2683821498856,5.063828807548472e-07
264,748.2952149225927,5.440375226149759e-07
265,816.3220613010035,5.806179983037204e-07
266,884.3488940737104,6.162502184987371e-07
267,952.3757404521215,6.510319015222062e-07
268,1020.4025732248285,6.850411499631127e-07
269,1088.4294196032395,7.183419914302716e-07
270,1156.4562523759464,7.509879059472732e-07
271,1224.4830851486533,7.830243526177487e-07
272,1292.5099315270643,8.144904819985386e-07
273,1360.5367642997712,8.454203747222126e-07
274,1496.590443450889,9.057880840871215e-07
275,1632.644122602007,9.643300446828326e-07
276,1768.697801753125,1.0212098539229213e-06
277,1904.7514672985392,1.0765625870012506e-06
278,2040.805146449657,1.130501799081851e-06
279,2176.8588256007747,1.18312432426164e-06
280,2312.912504751893,1.2345137861043598e-06
281,2448.966183903011,1.284743158945967e-06
282,2585.0198630541286,1.3338767071584656e-06
283,2721.0735285995424,1.38197147271782e-06
284,2857.1272077506605,1.4290784725244513e-06
285,2993.180886901778,1.4752435848667256e-06
286,3129.2345660528963,1.5205083253593358e-06
287,3265.288245204014,1.5649104488300502e-06
288,3401.3419107494283,1.6084844433789932e-06
289,3537.3955899005464,1.6512619712648494e-06
290,3673.4492690516645,1.6932721783254043e-06
291,3809.502948202782,1.7345420110789393e-06
292,3945.5566273539002,1.7750964622792886e-06
293,4081.610306505018,1.814958780923195e-06
294,4217.663972050432,1.8541506506314134e-06
295,4353.717651201549,1.8926923711569417e-06
296,4489.771330352668,1.9306029600698776e-06
297,4625.825009503786,1.9679002968043125e-06
298,4761.878688654903,2.0046012205571935e-06
299,4897.932354200318,2.0407216191743765e-06
300,5033.986033351435,2.076276532524579e-06
301,5170.039712502553,2.1112801904850364e-06
302,5306.0933916536715,2.1457461021465217e-06
303,5442.147070804789,2.1796871062709795e-06
304,5578.200749955907,2.213115423033316e-06
305,5714.254415501321,2.246042696922531e-06
306,5850.308094652439,2.2784800574769747e-06
307,5986.361773803556,2.310438126650978e-06
308,6122.415452954675,2.3419270755547706e-06
309,6258.469132105793,2.372956646343726e-06
310,6394.522797651206,2.403536180538663e-06
311,6530.576476802325,2.433674660730948e-06
312,6666.630155953442,2.463380706198786e-06
313,6802.68383510456,2.492662613777049e-06
314,6938.737514255678,2.5215283750163346e-06
315,7074.791179801093,2.549985684499448e-06
316,7210.8448589522095,2.57804198160212e-06
317,7346.898538103329,2.605704433039166e-06
318,7482.952217254446,2.63297996853485e-06
319,7619.005896405564,2.659875288612569e-06
320,7755.059575556682,2.6863968756734217e-06
321,7891.113241102096,2.7125510041133544e-06
322,8027.166920253213,2.7383437643894095e-06
323,8163.220599404332,2.763781050811443e-06
324,8299.27427855545,2.788868583605609e-06
325,8435.327957706568,2.813611917538285e-06
326,8571.38162325198,2.8380164421551577e-06
327,8707.435302403099,2.8620874095332463e-06
328,8843.488981554217,2.8858299117032933e-06
329,8979.542660705336,2.909248908784734e-06
330,9115.596339856453,2.9323492269208234e-06
331,9251.650019007571,2.955135566554776e-06
332,9387.703684552984,2.977612502382827e-06
333,9523.757363704102,2.9997845063466037e-06
334,9659.81104285522,3.0216559255033907e-06
335,9795.86472200634,3.0432310063062426e-06
336,9931.918401157456,3.06451389063606e-06
337,10067.97206670287,3.0855086194375344e-06
338,10204.025745853987,3.1062191522336604e-06
339,10340.079425005106,3.126649343264565e-06
340,10476.133104156224,3.146802965175423e-06
341,10612.186783307343,3.166683706083188e-06
342,10748.24046245846,3.1862951723204344e-06
343,10884.294128003874,3.2056408887741364e-06
344,11020.34780715499,3.2247243165514065e-06
345,11156.40148630611,3.243548833638981e-06
346,11292.455165457228,3.262117748617057e-06
347,11428.508844608346,3.280434304937976e-06
348,11564.562510153759,3.2985016760193293e-06
349,11700.616189304877,3.3163229838344147e-06
350,11836.669868455994,3.333901275181865e-06
351,11972.723547607113,3.351239544970066e-06
352,12108.777226758231,3.3683407274397376e-06
353,12244.83090590935,3.385207704023968e-06
354,12380.884571454762,3.4018432956143062e-06
355,12516.938250605881,3.4182502841168376e-06
356,12652.991929756998,3.4344313893033394e-06
357,12789.045608908116,3.450389284465324e-06
358,12925.099288059235,3.466126595426437e-06
359,13061.15295360465,3.4816459003133555e-06
360,13197.206632755768,3.4969497384746164e-06
361,13333.260311906884,3.5120405996522924e-06
362,13469.313991058003,3.526920930946665e-06
363,13605.36767020912,3.541593139839444e-06
364,16326.441198808663,3.7947150736435598e-06
365,19047.514727408205,3.981332595950916e-06
366,21768.58826961345,4.1137365250775225e-06
367,24489.661798212994,4.2015653670326506e-06
368,27210.735326812537,4.252609966553003e-06
369,29931.808869017783,4.273322451722979e-06
370,32652.882397617326,4.269150312030409e-06
371,35373.95592621687,4.244759243183266e-06
372,38095.029468422115,4.204176886868416e-06
373,40816.10299702166,4.150893733530376e-06
374,43537.1765392269,4.087926518049629e-06
375,46258.25006782645,4.017868476524301e-06
376,48979.32359642599,3.9429291907999855e-06
377,51700.39713863123,3.8649587504143684e-06
378,54421.47066723078,3.785481828285789e-06
379,57142.54419583032,3.705749597282398e-06
380,59863.617738035566,3.6267186768921433e-06
381,62584.691266635105,3.549134748206523e-06
382,65305.76479523465,3.4735417759741513e-06
383,68026.8383374399,3.4003215767661e-06
384,70747.91186603945,3.329734793686226e-06
385,73468.98539463898,3.261903818931934e-06
386,76190.05893684423,3.1969055453200187e-06
387,78911.13246544376,3.1347418885541393e-06
388,81632.20599404332,3.075364461937928e-06
389,84353.27953624855,3.0187024277749284e-06
390,87074.35306484811,2.9646632609795274e-06
391,89795.42659344764,2.9131403235007506e-06
392,92516.5001356529,2.864019003731363e-06
393,95237.57366425243,2.817164837649277e-06
394,97958.64719285197,2.7724006475806456e-06
395,100679.72073505721,2.729578880575073e-06
396,103400.79426365678,2.6885660285201464e-06
397,106121.86779225631,2.6492409679883194e-06
398,108842.94133446156,2.611493527049408e-06
399,111564.0148630611,2.5752232501967854e-06
400,114285.08839166064,2.5403383318378175e-06
401,117006.16193386588,2.5067546837015456e-06
402,119727.23546246543,2.474395125541903e-06
403,122448.30900467066,2.4431886787025964e-06
404,125169.38253327021,2.413069938093142e-06
405,127890.45606186974,2.3839785297368267e-06
406,130611.529604075,2.3558586237655807e-06
407,133332.60313267456,2.3286585064686784e-06
408,136053.6766612741,2.3023302019252113e-06
409,138774.75020347934,2.2768291315970793e-06
410,141495.8237320789,2.2521138132053564e-06
411,144216.89726067844,2.2281455918296664e-06
412,146937.97080288368,2.2048883973857032e-06
413,149659.04433148322,2.1823085293757025e-06
414,156461.72816658777,2.1286201289614425e-06
415,163264.4120016923,2.0785322493718556e-06
416,170067.0958367969,2.0316677351448125e-06
417,176869.77965829574,1.9877020384635786e-06
418,183672.4634934003,1.9463541919961506e-06
419,190475.14732850486,1.907379595928404e-06
420,197277.83116360943,1.8705642131403216e-06
421,204080.51499871397,1.8357198504990016e-06
422,210883.19883381855,1.8026803015593597e-06
423,217685.88266892312,1.7712981644353698e-06
424,224488.56649042197,1.7414422076053586e-06
425,231291.25032552652,1.712995168664669e-06
426,238093.93416063106,1.6858519091662766e-06
427,244896.61799573564,1.65991785554363e-06
428,251699.30183084018,1.635107681959106e-06
429,258501.98566594475,1.6113441817849012e-06
430,265304.6695010493,1.588557308534616e-06
431,272107.3533225482,1.5666833463912537e-06
432,278910.0371576527,1.5456641980694802e-06
433,285712.7209927573,1.525446765687189e-06
434,292515.4048278619,1.5059824149497793e-06
435,299318.08866296645,1.4872265057147247e-06
436,306120.77249807096,1.4691379823984925e-06
437,312923.45633317553,1.4516790129345805e-06
438,319726.1401682801,1.4348146746297994e-06
439,326528.82398977893,1.4185126719483931e-06
440,333331.50782488356,1.4027430898481604e-06
441,340134.1916599881,1.3874781746034007e-06
442,346936.87549509265,1.3726921365744942e-06
443,353739.5593301972,1.3583609783140964e-06
444,360542.24316530174,1.3444623357663948e-06
445,367344.9270004063,1.3309753407214607e-06
446,374147.6108219052,1.3178804946443097e-06
