,E (eV),I (erg/s/cm**2)
0,1.360543186192048,0.00022429270213953484
1,2.0408011735840956,0.00023963745418664284
2,2.7210727666801198,0.00023972311387909437
3,3.401344359776144,0.0002605580775369351
4,4.081615952872168,0.0002974423249681284
5,4.761873940264215,0.0003300281883426728
6,5.4421455333602395,0.0003544498637822648
7,6.122417126456264,0.0003592166967573076
8,6.802688719552288,0.0003482189261562652
9,7.482946706944335,0.00032564973233091603
10,8.16321830004036,0.00029682981782786936
11,8.843489893136384,0.00026649404824643087
12,9.523761486232408,0.00022641338624999161
13,10.204019473624456,0.00011703900609844246
14,10.884291066720479,9.284211417903644e-05
15,11.564562659816504,7.366977139717636e-05
16,12.244834252912527,4.554782291355538e-05
17,12.92510584600855,2.2950453337236693e-05
18,13.7414208731606,6.738776781684226e-06
19,14.421692466256623,6.493575226329772e-06
20,15.101964059352648,6.251272882784788e-06
21,15.782222046744696,6.044528442378169e-06
22,16.46249363984072,5.882983719212637e-06
23,17.142765232936743,5.704518698512664e-06
24,17.823036826032766,5.534957161634256e-06
25,18.503294813424816,5.40491059169881e-06
26,19.18356640652084,5.244242964205108e-06
27,19.863837999616862,5.137587826648269e-06
28,20.544109592712886,5.014159111511719e-06
29,21.224367580104932,4.880941515892852e-06
30,21.90463917320096,4.787361854476925e-06
31,22.584910766296982,4.687117596617698e-06
32,23.26518235939301,4.619254658159368e-06
33,23.945440346785055,4.540878972655962e-06
34,24.62571193988108,4.453931474057171e-06
35,25.305983532977105,4.372295706587691e-06
36,25.986255126073125,4.276613286162455e-06
37,26.66652671916915,4.2171274843734695e-06
38,27.210741272505174,4.126365106115506e-06
39,27.3467847065612,4.113360874246962e-06
40,27.4828417463212,4.103771010122609e-06
41,27.618898786081196,4.072695255055835e-06
42,27.7549558258412,4.045555206080552e-06
43,27.89099925989722,4.025342499559641e-06
44,28.02705629965722,4.034950787934708e-06
45,28.16311333941722,4.011104733756969e-06
46,28.299170379177223,4.0073544942596845e-06
47,28.435213813233247,3.985541722803326e-06
48,28.571270852993244,3.991504348066411e-06
49,28.70732789275325,3.968140983388455e-06
50,28.843384932513246,3.959985949019651e-06
51,28.97942836656927,3.946347434478875e-06
52,29.115485406329267,3.938199526072056e-06
53,29.25154244608927,3.937406487037908e-06
54,29.387599485849268,3.9164790492386924e-06
55,29.523642919905292,3.902504227001284e-06
56,29.659699959665296,3.871355952825538e-06
57,29.795756999425294,3.8724972786149775e-06
58,29.931814039185298,3.866545707787363e-06
59,30.067857473241315,3.851826388702195e-06
60,30.20391451300132,3.82587926098509e-06
61,30.339971552761316,3.809745386182252e-06
62,30.47602859252132,3.8146907203033707e-06
63,30.612072026577344,3.784479860399738e-06
64,30.74812906633734,3.7906476877528226e-06
65,30.884186106097346,3.771523639260996e-06
66,31.020243145857343,3.7584672286925293e-06
67,31.156286579913367,3.747708416990919e-06
68,31.292343619673364,3.7224845609755954e-06
69,31.42840065943337,3.722979850674398e-06
70,31.564457699193365,3.6984587772367615e-06
71,31.70050113324939,3.6705797824364886e-06
72,31.836558173009394,3.6709916373596364e-06
73,31.97261521276939,3.6660289436584103e-06
74,32.108672252529395,3.637565591683082e-06
75,32.244715686585415,3.6232422203269227e-06
76,32.38077272634541,3.593753547630954e-06
77,32.51682976610541,3.603135403986972e-06
78,32.652886805865414,3.5945197785977236e-06
79,32.78893023992144,3.567489522440356e-06
80,32.92498727968144,3.5560418865144197e-06
81,33.06104431944144,3.526029715657483e-06
82,33.19710135920144,3.5295249731296038e-06
83,33.33314479325746,3.5119135771483187e-06
84,33.46920183301746,3.494043676128821e-06
85,33.60525887277746,3.477714428695428e-06
86,33.74131591253746,3.4500009042844026e-06
87,33.87735934659349,3.4182185750345165e-06
88,34.01341638635349,3.42551239157074e-06
89,34.14947342611349,3.421887191875241e-06
90,34.285530465873485,3.396678491395428e-06
91,34.421573899929506,3.3716752202589415e-06
92,34.55763093968951,3.3423571244602763e-06
93,34.69368797944951,3.324501098032197e-06
94,34.82974501920951,3.3345403146933044e-06
95,34.96578845326554,3.318115186484802e-06
96,35.101845493025536,3.2716190684572626e-06
97,35.23790253278553,3.2615561664675968e-06
98,35.37395957254554,3.2469072415340853e-06
99,35.51000300660156,3.2368782401519684e-06
100,35.646060046361555,3.215555600840783e-06
101,35.78211708612156,3.2030370932016504e-06
102,35.918174125881556,3.1714541499467364e-06
103,36.054217559937584,3.1557728018439144e-06
104,36.19027459969758,3.1469749238627326e-06
105,36.326331639457585,3.133244035548342e-06
106,36.46238867921758,3.1008630760546486e-06
107,36.59844571897758,3.070111684843744e-06
108,36.73448915303361,3.070836296701484e-06
109,36.870546192793604,3.0575873943318522e-06
110,37.00660323255361,3.0365707928256744e-06
111,37.142660272313606,3.00446308935219e-06
112,37.27870370636963,2.9978126820979636e-06
113,37.41476074612963,2.965701654304425e-06
114,37.55081778588963,2.952153943142898e-06
115,37.686874825649625,2.9554647183409617e-06
116,37.82291825970565,2.9316667113153934e-06
117,37.958975299465656,2.8932985472992926e-06
118,38.095032339225654,2.888065833830351e-06
119,38.23108937898566,2.8642975502782034e-06
120,38.36713281304168,2.8496097244882682e-06
121,38.503189852801675,2.834789382543241e-06
122,38.63924689256167,2.825651242076679e-06
123,38.77530393232168,2.782318752485933e-06
124,38.911347366377704,2.7738751602162707e-06
125,39.0474044061377,2.7582030024446523e-06
126,39.183461445897706,2.739284630102906e-06
127,39.3195184856577,2.7279066452606397e-06
128,39.45556191971372,2.7086216161965322e-06
129,39.59161895947372,2.6648503469653463e-06
130,39.727675999233725,2.663901570229287e-06
131,39.86373303899372,2.648740805672358e-06
132,39.99977647304975,2.632306039642016e-06
133,40.135833512809754,2.6147363137120414e-06
134,40.27189055256975,2.5974323400925916e-06
135,40.407947592329755,2.560120111263445e-06
136,40.54399102638577,2.539399593914691e-06
137,40.68004806614577,2.5231471633683146e-06
138,40.81610510590577,2.5066134359541885e-06
139,40.952162145665774,1.6516459885985895e-06
140,41.0882055797218,1.632615755095895e-06
141,41.2242626194818,1.616288700792873e-06
142,41.3603196592418,1.5958653336711243e-06
143,41.4963766990018,1.584121193828018e-06
144,41.63242013305782,1.5746969528715026e-06
145,41.76847717281782,1.568111746023771e-06
146,41.90453421257782,1.565951820998561e-06
147,42.04059125233782,1.554598680570087e-06
148,42.17663468639385,1.5331312847069646e-06
149,42.31269172615385,1.511182358216192e-06
150,42.44874876591385,1.5024905171782935e-06
151,42.584805805673845,1.4925060870949304e-06
152,42.720849239729866,1.4855895153780289e-06
153,42.85690627948987,1.4845409255704272e-06
154,42.99296331924987,1.4716523196523017e-06
155,43.12902035900987,1.4585484750484849e-06
156,43.2650637930659,1.447183474470445e-06
157,43.401120832825896,1.423145556471671e-06
158,43.53717787258589,1.4142868997042702e-06
159,43.67323491234589,1.4051224523124732e-06
160,43.80927834640192,1.3989063633280524e-06
161,43.945335386161915,1.3953205183649083e-06
162,44.08139242592192,1.3850796901027238e-06
163,44.217449465681916,1.3722339105452497e-06
164,44.353492899737944,1.3656509763373433e-06
165,44.48954993949794,1.3396696312382478e-06
166,44.62560697925794,1.3300902381456187e-06
167,44.761664019017935,1.323389223809335e-06
168,44.89770745307396,1.3139992182327909e-06
169,45.03376449283397,1.310353170185877e-06
170,45.169821532593964,1.3055168678685066e-06
171,45.30587857235397,1.2913699136532647e-06
172,45.44192200640999,1.279922103630897e-06
173,45.577979046169986,1.2597669406717134e-06
174,45.71403608592998,1.250599564488048e-06
175,45.85009312568999,1.2422817375465769e-06
176,45.986136559746015,1.2344110174902894e-06
177,46.12219359950601,1.2232174902809535e-06
178,46.258250639266016,1.2221001520609828e-06
179,46.394307679026014,1.2106123093597054e-06
180,46.53035111308204,1.1975102938275782e-06
181,46.66640815284203,1.1877817341644204e-06
182,46.802465192602035,1.1762837518000807e-06
183,46.93852223236203,1.1686430757098253e-06
184,47.07456566641806,1.161022333435179e-06
185,47.210622706178064,1.1523961280472665e-06
186,47.34667974593806,1.1419105277190833e-06
187,47.482736785698066,1.1475190425080934e-06
188,47.618780219754086,1.143997856836809e-06
189,47.75483725951408,1.1305249091845802e-06
190,47.89089429927408,1.1274373006478843e-06
191,48.026951339034085,1.1143102967866892e-06
192,48.16299477309011,1.1114388640303511e-06
193,48.29905181285011,1.098451516743035e-06
194,48.43506041766452,1.126876690897076e-06
195,48.43515728755569,1.1268789446451145e-06
196,48.57116589237011,1.1262835258586678e-06
197,48.707222932130115,1.111872054879823e-06
198,48.84326636618613,1.1110769164768257e-06
199,48.97932340594613,1.0962767541416635e-06
200,49.11538044570613,1.095750472871237e-06
201,49.251437485466134,1.0814091090425243e-06
202,49.38748091952216,1.0812651177642508e-06
203,49.52353795928216,1.066921515100824e-06
204,49.65959499904216,1.0677283783135072e-06
205,49.79565203880216,1.0531892278667994e-06
206,49.93169547285818,1.0543583640306416e-06
207,50.06775251261818,1.0398748004103898e-06
208,50.20380955237818,1.0416194728448248e-06
209,50.33986659213818,1.0271100464463772e-06
210,50.47591002619421,1.0294857398516974e-06
211,50.61196706595421,1.01463318772153e-06
212,50.74802410571421,1.0176585372876387e-06
213,50.884081145474205,1.002708196980843e-06
214,51.02007355950089,1.0067852182422828e-06
215,51.02017559955957,1.0067872318109741e-06
216,51.15618161929023,1.00639969154297e-06
217,51.29223865905023,1.0110580588357416e-06
218,51.42829569881023,9.955411688972678e-07
219,51.56433913286626,1.0009803482378573e-06
220,51.700396172626256,9.849002748960226e-07
221,51.83645321238625,9.913781529874084e-07
222,51.97251025214625,9.752010776015266e-07
223,52.10855368620228,9.825041056696393e-07
224,52.24455848141958,9.661716218094025e-07
225,52.244662970504976,9.661735541520623e-07
226,52.38066776572228,9.840306307102168e-07
227,52.516724805482276,9.670271504650931e-07
228,52.652768239538304,9.76965672047761e-07
229,52.7888252792983,9.592121570816574e-07
230,52.92482939423041,9.771064187759636e-07
231,52.924935243886196,9.771083729887456e-07
232,53.060939358818295,9.587300372194146e-07
233,53.19698279287432,9.421989375070065e-07
234,53.33303983263433,9.526012851269097e-07
235,53.469096872394324,9.353886256464031e-07
236,53.60515391215433,9.474131463566032e-07
237,53.74119734621035,9.295678646280263e-07
238,53.877254385970346,9.432937509151218e-07
239,54.01331142573034,9.24672736496722e-07
240,54.14936846549035,9.399650667802502e-07
241,54.285411899546375,9.20350952845263e-07
242,54.55752597906638,9.168800414596166e-07
243,61.36021469861866,6.618197860259786e-07
244,68.16288981246697,6.375249061332621e-07
245,74.96557853201926,6.167100783070722e-07
246,81.76825364586757,5.954605096433427e-07
247,88.57094236541987,5.749925020288133e-07
248,95.37363108497215,5.556169561344554e-07
249,102.17630619882047,5.377042439604842e-07
250,108.97899491837275,5.212163847196029e-07
251,115.78168363792504,5.059690894013859e-07
252,122.58435875177334,4.919132009259645e-07
253,129.38704747132562,4.790327013254294e-07
254,136.05367915111793,4.675762104765157e-07
255,136.1897361908779,4.673534932046848e-07
256,204.0805119238249,4.245364650917035e-07
257,272.10735830223587,4.696180849610575e-07
258,340.1341910749428,5.156436534732332e-07
259,408.1610238476498,5.605527861250121e-07
260,476.18787022606074,6.110089602735895e-07
261,544.2147029987677,6.674680840560445e-07
262,612.2415493771787,7.277736973663109e-07
263,680.2683821498856,7.887402522482479e-07
264,748.2952149225927,8.477771554217326e-07
265,816.3220613010035,9.051250293980475e-07
266,884.3488940737104,9.609912363099789e-07
267,952.3757404521215,1.015535124114904e-06
268,1020.4025732248285,1.068882970331482e-06
269,1088.4294196032395,1.1211375411581481e-06
270,1156.4562523759464,1.1723841468138393e-06
271,1224.4830851486533,1.2226949267990148e-06
272,1292.5099315270643,1.272131736112275e-06
273,1360.5367642997712,1.320748221859247e-06
274,1496.590443450889,1.415703114544662e-06
275,1632.644122602007,1.5078762937676925e-06
276,1768.697801753125,1.5975224347565849e-06
277,1904.7514672985392,1.684851107849655e-06
278,2040.805146449657,1.7700380131260992e-06
279,2176.8588256007747,1.8532326325996778e-06
280,2312.912504751893,1.9345637958457265e-06
281,2448.966183903011,2.0141437234359054e-06
282,2585.0198630541286,2.0920710792880777e-06
283,2721.0735285995424,2.1684333046587248e-06
284,2857.1272077506605,2.243308490194749e-06
285,2993.180886901778,2.316766763673208e-06
286,3129.2345660528963,2.388871498947193e-06
287,3265.288245204014,2.459680255342901e-06
288,3401.3419107494283,2.529245542858943e-06
289,3537.3955899005464,2.597615511378058e-06
290,3673.4492690516645,2.664834427582619e-06
291,3809.502948202782,2.730943171400871e-06
292,3945.5566273539002,2.7959796107522118e-06
293,4081.610306505018,2.8599789327541244e-06
294,4217.663972050432,2.922973915021895e-06
295,4353.717651201549,2.9849952118488933e-06
296,4489.771330352668,3.0460715054615413e-06
297,4625.825009503786,3.106229732651862e-06
298,4761.878688654903,3.1654952367266273e-06
299,4897.932354200318,3.223891899848695e-06
300,5033.986033351435,3.28144230874154e-06
301,5170.039712502553,3.3381678096184286e-06
302,5306.0933916536715,3.3940886456138787e-06
303,5442.147070804789,3.4492240363661447e-06
304,5578.200749955907,3.5035922568445487e-06
305,5714.254415501321,3.5572107014913293e-06
306,5850.308094652439,3.6100959841324753e-06
307,5986.361773803556,3.6622639414018676e-06
308,6122.415452954675,3.7137297224638214e-06
309,6258.469132105793,3.7645078272930995e-06
310,6394.522797651206,3.814612142495452e-06
311,6530.576476802325,3.86405601388581e-06
312,6666.630155953442,3.912852232228405e-06
313,6802.68383510456,3.961013101342163e-06
314,6938.737514255678,4.0085504588583736e-06
315,7074.791179801093,4.055475695664572e-06
316,7210.8448589522095,4.101799814947578e-06
317,7346.898538103329,4.147533407205254e-06
318,7482.952217254446,4.1926867061781755e-06
319,7619.005896405564,4.237269596603482e-06
320,7755.059575556682,4.2812916368556275e-06
321,7891.113241102096,4.324762069510945e-06
322,8027.166920253213,4.367689862951112e-06
323,8163.220599404332,4.410083684248635e-06
324,8299.27427855545,4.451951945782266e-06
325,8435.327957706568,4.493302806340739e-06
326,8571.38162325198,4.534144176969019e-06
327,8707.435302403099,4.574483763759465e-06
328,8843.488981554217,4.61432903340925e-06
329,8979.542660705336,4.653687252417437e-06
330,9115.596339856453,4.692565487518954e-06
331,9251.650019007571,4.730970617436044e-06
332,9387.703684552984,4.768909333475015e-06
333,9523.757363704102,4.806388172663115e-06
334,9659.81104285522,4.843413487416747e-06
335,9795.86472200634,4.8799914763158305e-06
336,9931.918401157456,4.916128186284118e-06
337,10067.97206670287,4.95182951025473e-06
338,10204.025745853987,4.987101221480581e-06
339,10340.079425005106,5.021948939557425e-06
340,10476.133104156224,5.056378156647645e-06
341,10612.186783307343,5.090394243970878e-06
342,10748.24046245846,5.124002450187731e-06
343,10884.294128003874,5.1572079040034265e-06
344,11020.34780715499,5.190015639971035e-06
345,11156.40148630611,5.222430564690364e-06
346,11292.455165457228,5.254457490604571e-06
347,11428.508844608346,5.2861011270936425e-06
348,11564.562510153759,5.317366081917894e-06
349,11700.616189304877,5.34825688734012e-06
350,11836.669868455994,5.378777966582493e-06
351,11972.723547607113,5.408933662540874e-06
352,12108.777226758231,5.438728233314529e-06
353,12244.83090590935,5.4681658535024186e-06
354,12380.884571454762,5.4972506152796665e-06
355,12516.938250605881,5.525986549245149e-06
356,12652.991929756998,5.554377595636138e-06
357,12789.045608908116,5.582427628225885e-06
358,12925.099288059235,5.610140450015219e-06
359,13061.15295360465,5.637519790071328e-06
360,13197.206632755768,5.6645693294585124e-06
361,13333.260311906884,5.6912926693295005e-06
362,13469.313991058003,5.7176933524261575e-06
363,13605.36767020912,5.743774862639312e-06
364,16326.441198808663,6.20327159695345e-06
365,19047.514727408205,6.559309715350906e-06
366,21768.58826961345,6.82967061708713e-06
367,24489.661798212994,7.028323407435647e-06
368,27210.735326812537,7.166572693852425e-06
369,29931.808869017783,7.253778230449406e-06
370,32652.882397617326,7.297837500688448e-06
371,35373.95592621687,7.305521091068001e-06
372,38095.029468422115,7.282710102908152e-06
373,40816.10299702166,7.23455963488738e-06
374,43537.1765392269,7.165619772760979e-06
375,46258.25006782645,7.07991410991496e-06
376,48979.32359642599,6.980994620685302e-06
377,51700.39713863123,6.8720007145300405e-06
378,54421.47066723078,6.7556645071744656e-06
379,57142.54419583032,6.634364449318199e-06
380,59863.617738035566,6.5101427597589275e-06
381,62584.691266635105,6.384721138449729e-06
382,65305.76479523465,6.259544588240934e-06
383,68026.8383374399,6.135770819575686e-06
384,70747.91186603945,6.014332660949094e-06
385,73468.98539463898,5.8959700154710995e-06
386,76190.05893684423,5.781176995266365e-06
387,78911.13246544376,5.670370423059187e-06
388,81632.20599404332,5.563755399584748e-06
389,84353.27953624855,5.461509716422922e-06
390,87074.35306484811,5.363669608202372e-06
391,89795.42659344764,5.270214678191594e-06
392,92516.5001356529,5.1810810491635e-06
393,95237.57366425243,5.096076520098401e-06
394,97958.64719285197,5.014864130469263e-06
395,100679.72073505721,4.937176139503874e-06
396,103400.79426365678,4.862770297346496e-06
397,106121.86779225631,4.791426821884228e-06
398,108842.94133446156,4.722945806794316e-06
399,111564.0148630611,4.6571449732535824e-06
400,114285.08839166064,4.5938577396663205e-06
401,117006.16193386588,4.532931528753829e-06
402,119727.23546246543,4.474226299385542e-06
403,122448.30900467066,4.417613258879983e-06
404,125169.38253327021,4.362973732104698e-06
405,127890.45606186974,4.310198173204328e-06
406,130611.529604075,4.2591852792375405e-06
407,133332.60313267456,4.209841216927035e-06
408,136053.6766612741,4.162078936249106e-06
409,138774.75020347934,4.115817551007188e-06
410,141495.8237320789,4.0709817926442445e-06
411,144216.89726067844,4.027501525276436e-06
412,146937.97080288368,3.985311301978784e-06
413,149659.04433148322,3.944349971666808e-06
414,156461.72816658777,3.846956490106285e-06
415,163264.4120016923,3.7560954866110854e-06
416,170067.0958367969,3.671082641586621e-06
417,176869.77965829574,3.5913290929329127e-06
418,183672.4634934003,3.516325050371654e-06
419,190475.14732850486,3.445626717379463e-06
420,197277.83116360943,3.3788457460630653e-06
421,204080.51499871397,3.315640685059036e-06
422,210883.19883381855,3.2557099731242035e-06
423,217685.88266892312,3.1987861722712454e-06
424,224488.56649042197,3.144631182468487e-06
425,231291.25032552652,3.0930322508106615e-06
426,238093.93416063106,3.04379861995449e-06
427,244896.61799573564,2.996758704111777e-06
428,251699.30183084018,2.9517576945407894e-06
429,258501.98566594475,2.9086555156907387e-06
430,265304.6695010493,2.867325081713522e-06
431,272107.3533225482,2.827650793574114e-06
432,278910.0371576527,2.7895272468472414e-06
433,285712.7209927573,2.752858108240895e-06
434,292515.4048278619,2.717555140715733e-06
435,299318.08866296645,2.683537355402459e-06
436,306120.77249807096,2.650730268110069e-06
437,312923.45633317553,2.6190652421234885e-06
438,319726.1401682801,2.5884789191560342e-06
439,326528.82398977893,2.558912707600525e-06
440,333331.50782488356,2.5303123352086815e-06
441,340134.1916599881,2.502627449881314e-06
442,346936.87549509265,2.475811265513967e-06
443,353739.5593301972,2.449820244493242e-06
444,360542.24316530174,2.42461381494915e-06
445,367344.9270004063,2.400154117335227e-06
446,374147.6108219052,2.3764057784634505e-06
447,380950.2946570097,2.3533357041330302e-06
448,387752.9784921143,2.330912896893583e-06
