,E (eV),I (erg/s/cm**2)
0,1.360543186192048,0.0001196757043450442
1,2.0408011735840956,0.00012759829588047497
2,2.7210727666801198,0.00013624140319570967
3,3.401344359776144,0.000147564309997689
4,4.081615952872168,0.00016509768518673703
5,4.761873940264215,0.00017228223095534076
6,5.4421455333602395,0.00017434728440348542
7,6.122417126456264,0.0001653862478219253
8,6.802688719552288,0.0001527189444228728
9,7.482946706944335,0.00013733074047491913
10,8.16321830004036,0.00012133312494701172
11,8.843489893136384,0.00011072132053927774
12,9.523761486232408,8.763646088821659e-05
13,10.204019473624456,4.716894885949472e-05
14,10.884291066720479,3.527298416061059e-05
15,11.564562659816504,2.5704298449216387e-05
16,12.244834252912527,2.2144810583276123e-05
17,12.92510584600855,1.1152792114320267e-05
18,13.7414208731606,2.7577248675100714e-06
19,14.421692466256623,2.6562953394064674e-06
20,15.101964059352648,2.5672481649169542e-06
21,15.782222046744696,2.4814337357711063e-06
22,16.46249363984072,2.4169974443868005e-06
23,17.142765232936743,2.354102007160998e-06
24,17.823036826032766,2.2956358819018518e-06
25,18.503294813424816,2.238576101509918e-06
26,19.18356640652084,2.1887683364501015e-06
27,19.863837999616862,2.1381037217131617e-06
28,20.544109592712886,2.087204334846813e-06
29,21.224367580104932,2.0373551995925796e-06
30,21.90463917320096,1.97984493297561e-06
31,22.584910766296982,1.9267054635611607e-06
32,23.26518235939301,1.893725632643809e-06
33,23.945440346785055,1.8524153289419635e-06
34,24.62571193988108,1.8072073167140643e-06
35,25.305983532977105,1.7712696022532569e-06
36,25.986255126073125,1.7276956208067332e-06
37,26.66652671916915,1.682259573145338e-06
38,27.210741272505174,1.6383332991010748e-06
39,27.3467847065612,1.631866583637047e-06
40,27.4828417463212,1.6266472702209066e-06
41,27.618898786081196,1.6109603096225938e-06
42,27.7549558258412,1.5961687830648247e-06
43,27.89099925989722,1.5923355714060957e-06
44,28.02705629965722,1.5859805682095462e-06
45,28.16311333941722,1.575523707932398e-06
46,28.299170379177223,1.5562358333907015e-06
47,28.435213813233247,1.5482453596090412e-06
48,28.571270852993244,1.5414364736467285e-06
49,28.70732789275325,1.5364391685343334e-06
50,28.843384932513246,1.5169374498675128e-06
51,28.97942836656927,1.5071104774582935e-06
52,29.115485406329267,1.5007821642550168e-06
53,29.25154244608927,1.4946719067542265e-06
54,29.387599485849268,1.4820033753498877e-06
55,29.523642919905292,1.4672435138814918e-06
56,29.659699959665296,1.4607139053395319e-06
57,29.795756999425294,1.4510980885350667e-06
58,29.931814039185298,1.432851049388753e-06
59,30.067857473241315,1.4246902739308073e-06
60,30.20391451300132,1.4210133912594642e-06
61,30.339971552761316,1.4122702071984884e-06
62,30.47602859252132,1.400939548796364e-06
63,30.612072026577344,1.3847892708385748e-06
64,30.74812906633734,1.3746000491137023e-06
65,30.884186106097346,1.3678982301576305e-06
66,31.020243145857343,1.3652700882040443e-06
67,31.156286579913367,1.3386663257333943e-06
68,31.292343619673364,1.333412662761369e-06
69,31.42840065943337,1.3261506608928992e-06
70,31.564457699193365,1.3169339864171136e-06
71,31.70050113324939,1.3111614137842855e-06
72,31.836558173009394,1.291649901797595e-06
73,31.97261521276939,1.2826732179982764e-06
74,32.108672252529395,1.2761731426426036e-06
75,32.244715686585415,1.2704898973276307e-06
76,32.38077272634541,1.259058965963684e-06
77,32.51682976610541,1.23692301964255e-06
78,32.652886805865414,1.2274143644406288e-06
79,32.78893023992144,1.2263175308812788e-06
80,32.92498727968144,1.2218965825936723e-06
81,33.06104431944144,1.2111236697447077e-06
82,33.19710135920144,1.1916907441308444e-06
83,33.33314479325746,1.1800068900056014e-06
84,33.46920183301746,1.1725250341141836e-06
85,33.60525887277746,1.1648368986941971e-06
86,33.74131591253746,1.1661543547721389e-06
87,33.87735934659349,1.1426943337434154e-06
88,34.01341638635349,1.1342116812949868e-06
89,34.14947342611349,1.124633002819193e-06
90,34.285530465873485,1.1158560806627217e-06
91,34.421573899929506,1.1100956316227252e-06
92,34.55763093968951,1.104497613110761e-06
93,34.69368797944951,1.0876863088561723e-06
94,34.82974501920951,1.0806636984127152e-06
95,34.96578845326554,1.0685716716325675e-06
96,35.101845493025536,1.0616520365477752e-06
97,35.23790253278553,1.0560692281795552e-06
98,35.37395957254554,1.051038069105971e-06
99,35.51000300660156,1.0300076851423402e-06
100,35.646060046361555,1.022663992827106e-06
101,35.78211708612156,1.016242200794617e-06
102,35.918174125881556,1.009237743572167e-06
103,36.054217559937584,1.0034834627244554e-06
104,36.19027459969758,9.987090283496435e-07
105,36.326331639457585,9.786054156062212e-07
106,36.46238867921758,9.70939392952552e-07
107,36.59844571897758,9.60664464421381e-07
108,36.73448915303361,9.549586175351424e-07
109,36.870546192793604,9.526740691867335e-07
110,37.00660323255361,9.469461713412859e-07
111,37.142660272313606,9.398537953732628e-07
112,37.27870370636963,9.201957536489893e-07
113,37.41476074612963,9.133075342456328e-07
114,37.55081778588963,9.078378786106386e-07
115,37.686874825649625,9.010574722330146e-07
116,37.82291825970565,8.963708001790621e-07
117,37.958975299465656,8.908848083673839e-07
118,38.095032339225654,8.840095136967612e-07
119,38.23108937898566,8.687397590834266e-07
120,38.36713281304168,8.605516338253784e-07
121,38.503189852801675,8.523594154514e-07
122,38.63924689256167,8.463058106923362e-07
123,38.77530393232168,8.382310856906364e-07
124,38.911347366377704,8.307584747636333e-07
125,39.0474044061377,8.243894962436229e-07
126,39.183461445897706,8.165405348230583e-07
127,39.3195184856577,8.093413872625814e-07
128,39.45556191971372,8.063781530125355e-07
129,39.59161895947372,7.988092118057595e-07
130,39.727675999233725,7.916375601840741e-07
131,39.86373303899372,7.854304626001785e-07
132,39.99977647304975,7.786449608632672e-07
133,40.135833512809754,7.708657656220948e-07
134,40.27189055256975,7.655588072721618e-07
135,40.407947592329755,7.580918356126329e-07
136,40.54399102638577,7.519926787423455e-07
137,40.68004806614577,7.456550680751264e-07
138,40.81610510590577,7.389570761691453e-07
139,40.952162145665774,5.44630262836223e-07
140,41.0882055797218,5.401137148072377e-07
141,41.2242626194818,5.358997253432053e-07
142,41.3603196592418,5.321024150143535e-07
143,41.4963766990018,5.28048916336076e-07
144,41.63242013305782,5.242261473674813e-07
145,41.76847717281782,5.202690072051018e-07
146,41.90453421257782,5.157695781257167e-07
147,42.04059125233782,5.124278807218282e-07
148,42.17663468639385,5.081980273561327e-07
149,42.31269172615385,5.051220870059238e-07
150,42.44874876591385,5.007827430312519e-07
151,42.584805805673845,4.977557214789059e-07
152,42.720849239729866,4.937052726339012e-07
153,42.85690627948987,4.904775822848551e-07
154,42.99296331924987,4.86747578914847e-07
155,43.12902035900987,4.833048740300005e-07
156,43.2650637930659,4.798041771894208e-07
157,43.401120832825896,4.763403675379713e-07
158,43.53717787258589,4.7296607935563557e-07
159,43.67323491234589,4.6960643930624993e-07
160,43.80927834640192,4.667825607428536e-07
161,43.945335386161915,4.6290318721941204e-07
162,44.08139242592192,4.6023725865916967e-07
163,44.217449465681916,4.562955545380132e-07
164,44.353492899737944,4.5384051380849517e-07
165,44.48954993949794,4.498482418205061e-07
166,44.62560697925794,4.476047914811839e-07
167,44.761664019017935,4.4376751142928014e-07
168,44.89770745307396,4.415416042577082e-07
169,45.03376449283397,4.379275303825906e-07
170,45.169821532593964,4.354615021628788e-07
171,45.30587857235397,4.320215135499901e-07
172,45.44192200640999,4.297256115261674e-07
173,45.577979046169986,4.2619993066551225e-07
174,45.71403608592998,4.2427689580660237e-07
175,45.85009312568999,4.205634918891642e-07
176,45.986136559746015,4.1913373856233954e-07
177,46.12219359950601,4.1511972515423346e-07
178,46.258250639266016,4.1418666331947663e-07
179,46.394307679026014,4.0986546742350173e-07
180,46.53035111308204,4.093623623583851e-07
181,46.66640815284203,4.050642333796275e-07
182,46.802465192602035,4.046217314531604e-07
183,46.93852223236203,4.004818929937532e-07
184,47.07456566641806,4.0005568091979154e-07
185,47.210622706178064,3.9606929271134504e-07
186,47.34667974593806,3.9576385628863744e-07
187,47.482736785698066,3.9174291467468903e-07
188,47.618780219754086,3.8785786021132535e-07
189,47.75483725951408,3.874524591775114e-07
190,47.89089429927408,3.83640497067776e-07
191,48.026951339034085,3.8374988800235035e-07
192,48.16299477309011,3.7959397852634485e-07
193,48.29905181285011,3.8024758980857566e-07
194,48.43506041766452,3.829043391886716e-07
195,48.43515728755569,3.829051049955343e-07
196,48.57116589237011,3.8408158230937805e-07
197,48.707222932130115,3.794977745697589e-07
198,48.84326636618613,3.810531067155381e-07
199,48.97932340594613,3.7629048787122427e-07
200,49.11538044570613,3.718088601616232e-07
201,49.251437485466134,3.734544916107058e-07
202,49.38748091952216,3.687742964443076e-07
203,49.52353795928216,3.707606984473814e-07
204,49.65959499904216,3.6613524676517514e-07
205,49.79565203880216,3.6173428559404504e-07
206,49.93169547285818,3.637024328088066e-07
207,50.06775251261818,3.5921603458917655e-07
208,50.20380955237818,3.616926676045238e-07
209,50.33986659213818,3.570378628870299e-07
210,50.47591002619421,3.60228634529438e-07
211,50.61196706595421,3.551819745698065e-07
212,50.74802410571421,3.5064309498985834e-07
213,50.884081145474205,3.538406560208332e-07
214,51.02007355950089,3.525722878132333e-07
215,51.02017559955957,3.490462280924431e-07
216,51.15618161929023,3.566716677578132e-07
217,51.29223865905023,3.5130672861807097e-07
218,51.42829569881023,3.4665624111519614e-07
219,51.56433913286626,3.508352464117441e-07
220,51.700396172626256,3.455423723948541e-07
221,51.83645321238625,3.507518641169554e-07
222,51.97251025214625,3.451908883020461e-07
223,52.10855368620228,3.4011857612364185e-07
224,52.24455848141958,3.476941074471789e-07
225,52.244662970504976,3.454688289300315e-07
226,52.38066776572228,3.4210936549198814e-07
227,52.516724805482276,3.3716939169405277e-07
228,52.652768239538304,3.427272954523131e-07
229,52.7888252792983,3.371699781464375e-07
230,52.92482939423041,3.454797813350176e-07
231,52.924935243886196,3.4548047229456064e-07
232,53.060939358818295,3.3957485938321514e-07
233,53.19698279287432,3.341114431485616e-07
234,53.33303983263433,3.4116194591646454e-07
235,53.469096872394324,3.351981950981808e-07
236,53.60515391215433,3.29765970427931e-07
237,53.74119734621035,3.3716879067165493e-07
238,53.877254385970346,3.311600933597968e-07
239,54.01331142573034,3.257468435694369e-07
240,54.14936846549035,3.334063336060805e-07
241,54.285411899546375,3.2735423107613473e-07
242,54.55752597906638,3.2980470238298236e-07
243,61.36021469861866,2.555677772894714e-07
244,68.16288981246697,2.509579814358168e-07
245,74.96557853201926,2.460900278651888e-07
246,81.76825364586757,2.4060782750272505e-07
247,88.57094236541987,2.3500097621551707e-07
248,95.37363108497215,2.2947540653708887e-07
249,102.17630619882047,2.242044363000109e-07
250,108.97899491837275,2.193135822264622e-07
251,115.78168363792504,2.1488572529975026e-07
252,122.58435875177334,2.1101456634125552e-07
253,129.38704747132562,2.0778869688759316e-07
254,136.05367915111793,2.053104255427446e-07
255,136.1897361908779,2.052665921295483e-07
256,204.0805119238249,2.1219378267550894e-07
257,272.10735830223587,2.398878470311118e-07
258,340.1341910749428,2.67274155342829e-07
259,408.1610238476498,2.9703337597293796e-07
260,476.18787022606074,3.2941703113061383e-07
261,544.2147029987677,3.629233646218734e-07
262,612.2415493771787,3.964529659944921e-07
263,680.2683821498856,4.293419656653302e-07
264,748.2952149225927,4.6119127367686485e-07
265,816.3220613010035,4.921315358773474e-07
266,884.3488940737104,5.222675493650283e-07
267,952.3757404521215,5.516809385551545e-07
268,1020.4025732248285,5.804371412316779e-07
269,1088.4294196032395,6.085899404546388e-07
270,1156.4562523759464,6.361843556375551e-07
271,1224.4830851486533,6.632587231851854e-07
272,1292.5099315270643,6.898461090530812e-07
273,1360.5367642997712,7.159753342249127e-07
274,1496.590443450889,7.669580656203669e-07
275,1632.644122602007,8.163786243783995e-07
276,1768.697801753125,8.643758932873777e-07
277,1904.7514672985392,9.110646783445034e-07
278,2040.805146449657,9.565415900335295e-07
279,2176.8588256007747,1.0008890817723913e-06
280,2312.912504751893,1.0441784124144834e-06
281,2448.966183903011,1.0864718079404264e-06
282,2585.0198630541286,1.1278241029511405e-06
283,2721.0735285995424,1.1682839972722533e-06
284,2857.1272077506605,1.2078950719588236e-06
285,2993.180886901778,1.246696539162191e-06
286,3129.2345660528963,1.2847239024879194e-06
287,3265.288245204014,1.3220094653230204e-06
288,3401.3419107494283,1.3585827506452205e-06
289,3537.3955899005464,1.394470875870007e-06
290,3673.4492690516645,1.4296988151719954e-06
291,3809.502948202782,1.4642896711101738e-06
292,3945.5566273539002,1.498264878549496e-06
293,4081.610306505018,1.5316443885292774e-06
294,4217.663972050432,1.5644468154964986e-06
295,4353.717651201549,1.5966895951929572e-06
296,4489.771330352668,1.6283890687449946e-06
297,4625.825009503786,1.6595606058480588e-06
298,4761.878688654903,1.6902186886082325e-06
299,4897.932354200318,1.7203769873406889e-06
300,5033.986033351435,1.7500484472868406e-06
301,5170.039712502553,1.7792453220578673e-06
302,5306.0933916536715,1.8079792490319296e-06
303,5442.147070804789,1.8362612932569023e-06
304,5578.200749955907,1.864101990319667e-06
305,5714.254415501321,1.8915113829137753e-06
306,5850.308094652439,1.918499075036625e-06
307,5986.361773803556,1.9450742342592443e-06
308,6122.415452954675,1.971245641986769e-06
309,6258.469132105793,1.997021715443768e-06
310,6394.522797651206,2.022410524585546e-06
311,6530.576476802325,2.0474198342972233e-06
312,6666.630155953442,2.0720570982911414e-06
313,6802.68383510456,2.096329492304944e-06
314,6938.737514255678,2.120243930644383e-06
315,7074.791179801093,2.1438070744232596e-06
316,7210.8448589522095,2.1670253634798543e-06
317,7346.898538103329,2.189905004821678e-06
318,7482.952217254446,2.212452001840045e-06
319,7619.005896405564,2.234672160520605e-06
320,7755.059575556682,2.2565711009770118e-06
321,7891.113241102096,2.278154262517399e-06
322,8027.166920253213,2.2994269281477634e-06
323,8163.220599404332,2.3203942097524286e-06
324,8299.27427855545,2.3410610720340606e-06
325,8435.327957706568,2.3614323356537994e-06
326,8571.38162325198,2.3815126807780068e-06
327,8707.435302403099,2.4013066661336335e-06
328,8843.488981554217,2.4208187161926647e-06
329,8979.542660705336,2.4400531388454555e-06
330,9115.596339856453,2.459014127622897e-06
331,9251.650019007571,2.477705768782079e-06
332,9387.703684552984,2.4961320373823623e-06
333,9523.757363704102,2.5142968229152415e-06
334,9659.81104285522,2.532203905133545e-06
335,9795.86472200634,2.5498569767555637e-06
336,9931.918401157456,2.5672596419924804e-06
337,10067.97206670287,2.5844154167581913e-06
338,10204.025745853987,2.6013277450492983e-06
339,10340.079425005106,2.617999982607392e-06
340,10476.133104156224,2.634435412660678e-06
341,10612.186783307343,2.650637245916092e-06
342,10748.24046245846,2.6666086235533976e-06
343,10884.294128003874,2.6823526139020637e-06
344,11020.34780715499,2.6978722321803275e-06
345,11156.40148630611,2.713170418816018e-06
346,11292.455165457228,2.728250058429974e-06
347,11428.508844608346,2.7431139753774498e-06
348,11564.562510153759,2.7577649353079706e-06
349,11700.616189304877,2.772205656980042e-06
350,11836.669868455994,2.786438797551501e-06
351,11972.723547607113,2.8004669657273087e-06
352,12108.777226758231,2.8142927202177355e-06
353,12244.83090590935,2.827918571856734e-06
354,12380.884571454762,2.84134697975287e-06
355,12516.938250605881,2.854580370010043e-06
356,12652.991929756998,2.8676211118383965e-06
357,12789.045608908116,2.8804715378906515e-06
358,12925.099288059235,2.8931339375671623e-06
359,13061.15295360465,2.9056105568172224e-06
360,13197.206632755768,2.9179036129658933e-06
361,13333.260311906884,2.930015274354472e-06
362,13469.313991058003,2.94194767690061e-06
363,13605.36767020912,2.9537029192679316e-06
364,16326.441198808663,3.154554946657469e-06
365,19047.514727408205,3.2991450061919104e-06
366,21768.58826961345,3.398185851365058e-06
367,24489.661798212994,3.4600739873927e-06
368,27210.735326812537,3.491596427619976e-06
369,29931.808869017783,3.4983754033398055e-06
370,32652.882397617326,3.4851550495173868e-06
371,35373.95592621687,3.4559874434752447e-06
372,38095.029468422115,3.41435183362397e-06
373,40816.10299702166,3.3632387604407157e-06
374,43537.1765392269,3.3051956073172972e-06
375,46258.25006782645,3.242379173470777e-06
376,48979.32359642599,3.176586495400814e-06
377,51700.39713863123,3.1092900600462514e-06
378,54421.47066723078,3.0416537465701656e-06
379,57142.54419583032,2.974602702595869e-06
380,59863.617738035566,2.9088118865175987e-06
381,62584.691266635105,2.8447750025598198e-06
382,65305.76479523465,2.7828307464111805e-06
383,68026.8383374399,2.723195976765615e-06
384,70747.91186603945,2.6659693433749097e-06
385,73468.98539463898,2.6112084898947745e-06
386,76190.05893684423,2.5588950633021703e-06
387,78911.13246544376,2.5089779910982896e-06
388,81632.20599404332,2.461385177099749e-06
389,84353.27953624855,2.4160273652361565e-06
390,87074.35306484811,2.3728047522706303e-06
391,89795.42659344764,2.331612242732008e-06
392,92516.5001356529,2.292343442411608e-06
393,95237.57366425243,2.2548852716912524e-06
394,97958.64719285197,2.219097883559332e-06
395,100679.72073505721,2.184863321307207e-06
396,103400.79426365678,2.1520748574265326e-06
397,106121.86779225631,2.1206356637766788e-06
398,108842.94133446156,2.0904576687267546e-06
399,111564.0148630611,2.0614605653264123e-06
400,114285.08839166064,2.0335709625718754e-06
401,117006.16193386588,2.006721639722899e-06
402,119727.23546246543,1.9808508978421994e-06
403,122448.30900467066,1.955901993687769e-06
404,125169.38253327021,1.931822642612962e-06
405,127890.45606186974,1.908564579861472e-06
406,130611.529604075,1.8860831743630586e-06
407,133332.60313267456,1.86433708523338e-06
408,136053.6766612741,1.843287958013209e-06
409,138774.75020347934,1.8229001572135937e-06
410,141495.8237320789,1.8031405195844676e-06
411,144216.89726067844,1.783978144624447e-06
412,146937.97080288368,1.7653841964817419e-06
413,149659.04433148322,1.7473317335580543e-06
414,156461.72816658777,1.7044080666605684e-06
415,163264.4120016923,1.6643628318547239e-06
416,170067.0958367969,1.6268945205505058e-06
417,176869.77965829574,1.5917436786319761e-06
418,183672.4634934003,1.5586856912555595e-06
419,190475.14732850486,1.5275250172345042e-06
420,197277.83116360943,1.4980905471159993e-06
421,204080.51499871397,1.4702318324845047e-06
422,210883.19883381855,1.443816000815605e-06
423,217685.88266892312,1.4187252132373398e-06
424,224488.56649042197,1.3948545573242232e-06
425,231291.25032552652,1.372110289017881e-06
426,238093.93416063106,1.3504083547400038e-06
427,244896.61799573564,1.3296731486191133e-06
428,251699.30183084018,1.3098364564908175e-06
429,258501.98566594475,1.2908365560287187e-06
430,265304.6695010493,1.2726174480668822e-06
431,272107.3533225482,1.2551281948761447e-06
432,278910.0371576527,1.2383223501505106e-06
433,285712.7209927573,1.2221574645374155e-06
434,292515.4048278619,1.206594657469234e-06
435,299318.08866296645,1.1915982401323753e-06
436,306120.77249807096,1.1771353907504438e-06
437,312923.45633317553,1.1631758639345767e-06
438,319726.1401682801,1.1496917403284375e-06
439,326528.82398977893,1.1366572006720646e-06
440,333331.50782488356,1.1240483290954136e-06
441,340134.1916599881,1.1118429370771457e-06
442,346936.87549509265,1.1000204072800525e-06
443,353739.5593301972,1.0885615535465817e-06
444,360542.24316530174,1.077448497468125e-06
445,367344.9270004063,1.0666645548672299e-06
446,374147.6108219052,1.0561941376622086e-06
