,E (eV),I (erg/s/cm**2)
0,1.360543186192048,0.00016549240417541668
1,2.0408011735840956,0.00017266592376865281
2,2.7210727666801198,0.00018364240095103596
3,3.401344359776144,0.00019719402554452945
4,4.081615952872168,0.00022408785686689762
5,4.761873940264215,0.000244420265824478
6,5.4421455333602395,0.00025236809472558414
7,6.122417126456264,0.0002483822664945404
8,6.802688719552288,0.00023693572283179135
9,7.482946706944335,0.000210597079121997
10,8.16321830004036,0.00019386683344410787
11,8.843489893136384,0.00016522164843038787
12,9.523761486232408,0.000143675580988842
13,10.204019473624456,7.729444402692831e-05
14,10.884291066720479,6.077348300836949e-05
15,11.564562659816504,4.278743499165221e-05
16,12.244834252912527,2.9051841024382352e-05
17,12.92510584600855,1.4214439835132987e-05
18,13.7414208731606,4.3889519530530254e-06
19,14.421692466256623,4.2215110693110665e-06
20,15.101964059352648,4.071049498911348e-06
21,15.782222046744696,3.931222777856851e-06
22,16.46249363984072,3.832930825278314e-06
23,17.142765232936743,3.7069728957963523e-06
24,17.823036826032766,3.6127682117245816e-06
25,18.503294813424816,3.545789972761639e-06
26,19.18356640652084,3.442497426918745e-06
27,19.863837999616862,3.3763512948240603e-06
28,20.544109592712886,3.3029965416094576e-06
29,21.224367580104932,3.2213220533848645e-06
30,21.90463917320096,3.1690944869516483e-06
31,22.584910766296982,3.0829990862754194e-06
32,23.26518235939301,3.018817135866633e-06
33,23.945440346785055,2.9668661020707984e-06
34,24.62571193988108,2.8824837704078833e-06
35,25.305983532977105,2.812758668719873e-06
36,25.986255126073125,2.7790055335464473e-06
37,26.66652671916915,2.7178071891175967e-06
38,27.210741272505174,2.6782877965070365e-06
39,27.3467847065612,2.667686488816706e-06
40,27.4828417463212,2.648745999605273e-06
41,27.618898786081196,2.658031623761556e-06
42,27.7549558258412,2.6376475600828594e-06
43,27.89099925989722,2.6249402162584508e-06
44,28.02705629965722,2.6063540657037356e-06
45,28.16311333941722,2.603565521732936e-06
46,28.299170379177223,2.6001765056088065e-06
47,28.435213813233247,2.576830167496961e-06
48,28.571270852993244,2.565902247768916e-06
49,28.70732789275325,2.558031087596047e-06
50,28.843384932513246,2.5513652245964153e-06
51,28.97942836656927,2.537164355412635e-06
52,29.115485406329267,2.519728449403553e-06
53,29.25154244608927,2.5104275000567816e-06
54,29.387599485849268,2.4913444391307392e-06
55,29.523642919905292,2.494213927370036e-06
56,29.659699959665296,2.4739872327108836e-06
57,29.795756999425294,2.4534138139032875e-06
58,29.931814039185298,2.4446837947318534e-06
59,30.067857473241315,2.433609130830282e-06
60,30.20391451300132,2.4260127356846926e-06
61,30.339971552761316,2.4031417888968e-06
62,30.47602859252132,2.3929650561953102e-06
63,30.612072026577344,2.3880268418080755e-06
64,30.74812906633734,2.3689213300189112e-06
65,30.884186106097346,2.3428258235296527e-06
66,31.020243145857343,2.339725309309372e-06
67,31.156286579913367,2.334106803520101e-06
68,31.292343619673364,2.3232880734618156e-06
69,31.42840065943337,2.2996679673265186e-06
70,31.564457699193365,2.278881945729422e-06
71,31.70050113324939,2.279878508522142e-06
72,31.836558173009394,2.271254459680188e-06
73,31.97261521276939,2.2526233768359494e-06
74,32.108672252529395,2.2292887200794146e-06
75,32.244715686585415,2.211081830435455e-06
76,32.38077272634541,2.204517898181664e-06
77,32.51682976610541,2.2027969160665977e-06
78,32.652886805865414,2.1907610596695598e-06
79,32.78893023992144,2.1650285742415786e-06
80,32.92498727968144,2.1476880924995e-06
81,33.06104431944144,2.1381551478701575e-06
82,33.19710135920144,2.123377265171496e-06
83,33.33314479325746,2.099027397993866e-06
84,33.46920183301746,2.1026327977300686e-06
85,33.60525887277746,2.081280528523083e-06
86,33.74131591253746,2.075796550925648e-06
87,33.87735934659349,2.0582850524836683e-06
88,34.01341638635349,2.02683615497354e-06
89,34.14947342611349,2.0234560685057537e-06
90,34.285530465873485,2.0178146423406207e-06
91,34.421573899929506,2.0101681115719754e-06
92,34.55763093968951,1.9960276357863693e-06
93,34.69368797944951,1.9613363925328473e-06
94,34.82974501920951,1.9495679449988836e-06
95,34.96578845326554,1.941513459977469e-06
96,35.101845493025536,1.926059900159073e-06
97,35.23790253278553,1.9305816973783092e-06
98,35.37395957254554,1.91743513264667e-06
99,35.51000300660156,1.883060793124258e-06
100,35.646060046361555,1.872486419351348e-06
101,35.78211708612156,1.8610330066496454e-06
102,35.918174125881556,1.8547167176570894e-06
103,36.054217559937584,1.8372996291114988e-06
104,36.19027459969758,1.822538752780597e-06
105,36.326331639457585,1.802610513134472e-06
106,36.46238867921758,1.791781127934194e-06
107,36.59844571897758,1.7813783896448026e-06
108,36.73448915303361,1.775985233682304e-06
109,36.870546192793604,1.7589719343181124e-06
110,37.00660323255361,1.734696109863712e-06
111,37.142660272313606,1.7177538692152742e-06
112,37.27870370636963,1.7132080245323973e-06
113,37.41476074612963,1.7033880781500032e-06
114,37.55081778588963,1.6987401349461826e-06
115,37.686874825649625,1.6847302245708364e-06
116,37.82291825970565,1.65697703143112e-06
117,37.958975299465656,1.6378771042274423e-06
118,38.095032339225654,1.6282626020414034e-06
119,38.23108937898566,1.6169901394903976e-06
120,38.36713281304168,1.614602740856714e-06
121,38.503189852801675,1.6069397203516782e-06
122,38.63924689256167,1.5810665629537905e-06
123,38.77530393232168,1.5696652767110789e-06
124,38.911347366377704,1.5509914635240094e-06
125,39.0474044061377,1.5405772603700492e-06
126,39.183461445897706,1.5312110428871009e-06
127,39.3195184856577,1.5253047859976239e-06
128,39.45556191971372,1.5147570251139595e-06
129,39.59161895947372,1.4961534476436931e-06
130,39.727675999233725,1.4851767950863397e-06
131,39.86373303899372,1.468281209510884e-06
132,39.99977647304975,1.4578758633807583e-06
133,40.135833512809754,1.4493621509830895e-06
134,40.27189055256975,1.442907664226728e-06
135,40.407947592329755,1.4319145235988987e-06
136,40.54399102638577,1.4087533065362523e-06
137,40.68004806614577,1.3975243959976598e-06
138,40.81610510590577,1.3806003111978332e-06
139,40.952162145665774,9.705067716796406e-07
140,41.0882055797218,9.652593482278277e-07
141,41.2242626194818,9.60688256862527e-07
142,41.3603196592418,9.539662723812353e-07
143,41.4963766990018,9.358932997783891e-07
144,41.63242013305782,9.300029314799545e-07
145,41.76847717281782,9.231005202589571e-07
146,41.90453421257782,9.171335853585427e-07
147,42.04059125233782,9.11903474139191e-07
148,42.17663468639385,9.074311855957925e-07
149,42.31269172615385,9.031325732016626e-07
150,42.44874876591385,8.965697920475212e-07
151,42.584805805673845,8.818954000733682e-07
152,42.720849239729866,8.752675949821173e-07
153,42.85690627948987,8.688643292235091e-07
154,42.99296331924987,8.626339404352682e-07
155,43.12902035900987,8.562819084489603e-07
156,43.2650637930659,8.49830627739778e-07
157,43.401120832825896,8.433732906274972e-07
158,43.53717787258589,8.372987747655874e-07
159,43.67323491234589,8.306998343917953e-07
160,43.80927834640192,8.260527008305655e-07
161,43.945335386161915,8.185133887487669e-07
162,44.08139242592192,8.1366105752577e-07
163,44.217449465681916,8.065273509697837e-07
164,44.353492899737944,8.015358331719575e-07
165,44.48954993949794,7.962139206556962e-07
166,44.62560697925794,7.89768891006165e-07
167,44.761664019017935,7.848628450409764e-07
168,44.89770745307396,7.785026625605199e-07
169,45.03376449283397,7.734526723805952e-07
170,45.169821532593964,7.698418507798093e-07
171,45.30587857235397,7.620705749651146e-07
172,45.44192200640999,7.58492451726336e-07
173,45.577979046169986,7.509711620340523e-07
174,45.71403608592998,7.477503861930227e-07
175,45.85009312568999,7.402501969706567e-07
176,45.986136559746015,7.373879417853336e-07
177,46.12219359950601,7.299309714577251e-07
178,46.258250639266016,7.271056094488108e-07
179,46.394307679026014,7.241682998606172e-07
180,46.53035111308204,7.172391595940374e-07
181,46.66640815284203,7.14567085792352e-07
182,46.802465192602035,7.075250796005855e-07
183,46.93852223236203,7.051655980091376e-07
184,47.07456566641806,6.981841317768634e-07
185,47.210622706178064,6.960483158893711e-07
186,47.34667974593806,6.889225846999325e-07
187,47.482736785698066,6.870776590129396e-07
188,47.618780219754086,6.800145360957654e-07
189,47.75483725951408,6.785107025351374e-07
190,47.89089429927408,6.711184083769427e-07
191,48.026951339034085,6.703110370183396e-07
192,48.16299477309011,6.624986115513092e-07
193,48.29905181285011,6.624556826109004e-07
194,48.43506041766452,6.694416502979809e-07
195,48.43515728755569,6.694429891781072e-07
196,48.57116589237011,6.699349263065086e-07
197,48.707222932130115,6.617559462520372e-07
198,48.84326636618613,6.625199523741735e-07
199,48.97932340594613,6.540510654517604e-07
200,49.11538044570613,6.552901773740973e-07
201,49.251437485466134,6.467685061615486e-07
202,49.38748091952216,6.485377262775384e-07
203,49.52353795928216,6.397556593905081e-07
204,49.65959499904216,6.422782747849748e-07
205,49.79565203880216,6.332748481498858e-07
206,49.93169547285818,6.253734237613719e-07
207,50.06775251261818,6.272025766737973e-07
208,50.20380955237818,6.191213879247135e-07
209,50.33986659213818,6.217967681063863e-07
210,50.47591002619421,6.13350277317576e-07
211,50.61196706595421,6.168074211181137e-07
212,50.74802410571421,6.078151485918807e-07
213,50.884081145474205,6.122605307662331e-07
214,51.02007355950089,6.029678277853978e-07
215,51.02017559955957,6.029690337200083e-07
216,51.15618161929023,6.157742288112636e-07
217,51.29223865905023,6.059573397001857e-07
218,51.42829569881023,5.974535064426294e-07
219,51.56433913286626,6.024317608524226e-07
220,51.700396172626256,5.93070883043041e-07
221,51.83645321238625,5.992181952303554e-07
222,51.97251025214625,5.894873792409966e-07
223,52.10855368620228,5.96590470079564e-07
224,52.24455848141958,5.866015593631211e-07
225,52.244662970504976,5.866027325658853e-07
226,52.38066776572228,5.82092859127874e-07
227,52.516724805482276,5.890968609929231e-07
228,52.652768239538304,5.793370563744479e-07
229,52.7888252792983,5.875797130337857e-07
230,52.92482939423041,5.804859750585809e-07
231,52.924935243886196,5.804871360304981e-07
232,53.060939358818295,5.712329567769505e-07
233,53.19698279287432,5.793922665606287e-07
234,53.33303983263433,5.694635845073251e-07
235,53.469096872394324,5.791455798460411e-07
236,53.60515391215433,5.684984659671601e-07
237,53.74119734621035,5.796943538889508e-07
238,53.877254385970346,5.685308576139439e-07
239,54.01331142573034,5.58234985905196e-07
240,54.14936846549035,5.694467638543218e-07
241,54.285411899546375,5.583024962928259e-07
242,54.55752597906638,5.592829239841664e-07
243,61.36021469861866,4.190257273029618e-07
244,68.16288981246697,4.074896297288454e-07
245,74.96557853201926,3.967054447271579e-07
246,81.76825364586757,3.853295873503263e-07
247,88.57094236541987,3.7416495211490153e-07
248,95.37363108497215,3.634026050515506e-07
249,102.17630619882047,3.5326447668999427e-07
250,108.97899491837275,3.438435717803021e-07
251,115.78168363792504,3.3512545681673086e-07
252,122.58435875177334,3.2717888821001794e-07
253,129.38704747132562,3.200711406641748e-07
254,136.05367915111793,3.1400201487807584e-07
255,136.1897361908779,3.138860283273229e-07
256,204.0805119238249,3.037692230040391e-07
257,272.10735830223587,3.4005569322164214e-07
258,340.1341910749428,3.754431977609962e-07
259,408.1610238476498,4.12387457374333e-07
260,476.18787022606074,4.536834271707298e-07
261,544.2147029987677,4.980755089639979e-07
262,612.2415493771787,5.437622117380368e-07
263,680.2683821498856,5.890971933198538e-07
264,748.2952149225927,6.329988724235973e-07
265,816.3220613010035,6.756479473469638e-07
266,884.3488940737104,7.171935176997308e-07
267,952.3757404521215,7.577509183140064e-07
268,1020.4025732248285,7.974120721946413e-07
269,1088.4294196032395,8.362521570590447e-07
270,1156.4562523759464,8.743338401200205e-07
271,1224.4830851486533,9.117102997699039e-07
272,1292.5099315270643,9.484272693115918e-07
273,1360.5367642997712,9.845245119890555e-07
274,1496.590443450889,1.0549957291286375e-06
275,1632.644122602007,1.1233597668609038e-06
276,1768.697801753125,1.1898068112120382e-06
277,1904.7514672985392,1.254493717528594e-06
278,2040.805146449657,1.3175522318950162e-06
279,2176.8588256007747,1.3790946124395343e-06
280,2312.912504751893,1.4392177380709001e-06
281,2448.966183903011,1.4980060971206885e-06
282,2585.0198630541286,1.5555340531099103e-06
283,2721.0735285995424,1.6118675757406316e-06
284,2857.1272077506605,1.6670656376411411e-06
285,2993.180886901778,1.721181245260928e-06
286,3129.2345660528963,1.774262342380412e-06
287,3265.288245204014,1.8263525104183052e-06
288,3401.3419107494283,1.8774915408243533e-06
289,3537.3955899005464,1.9277159496285894e-06
290,3673.4492690516645,1.977059335095634e-06
291,3809.502948202782,2.0255527493144815e-06
292,3945.5566273539002,2.0732249786016328e-06
293,4081.610306505018,2.1201027913441667e-06
294,4217.663972050432,2.166211141806328e-06
295,4353.717651201549,2.2115733845377873e-06
296,4489.771330352668,2.2562113878889763e-06
297,4625.825009503786,2.3001457046055904e-06
298,4761.878688654903,2.3433956847473472e-06
299,4897.932354200318,2.385979577564544e-06
300,5033.986033351435,2.4279146508558337e-06
301,5170.039712502553,2.4692172390275108e-06
302,5306.0933916536715,2.5099028400043135e-06
303,5442.147070804789,2.549986179735242e-06
304,5578.200749955907,2.5894812699276096e-06
305,5714.254415501321,2.628401455267839e-06
306,5850.308094652439,2.6667594887187604e-06
307,5986.361773803556,2.7045675354932383e-06
308,6122.415452954675,2.741837240155222e-06
309,6258.469132105793,2.7785797556393264e-06
310,6394.522797651206,2.8148057691097354e-06
311,6530.576476802325,2.850525556102444e-06
312,6666.630155953442,2.8857489725308944e-06
313,6802.68383510456,2.9204855042186537e-06
314,6938.737514255678,2.954744282031197e-06
315,7074.791179801093,2.9885340987188676e-06
316,7210.8448589522095,3.0218634508740046e-06
317,7346.898538103329,3.0547405215998277e-06
318,7482.952217254446,3.087173221415379e-06
319,7619.005896405564,3.119169197175249e-06
320,7755.059575556682,3.1507358448554145e-06
321,7891.113241102096,3.1818803204907706e-06
322,8027.166920253213,3.2126095711443167e-06
323,8163.220599404332,3.2429303152940177e-06
324,8299.27427855545,3.272849073683187e-06
325,8435.327957706568,3.3023721755862026e-06
326,8571.38162325198,3.331505761939506e-06
327,8707.435302403099,3.360255813972643e-06
328,8843.488981554217,3.3886281319345998e-06
329,8979.542660705336,3.4166283618275286e-06
330,9115.596339856453,3.444261998284181e-06
331,9251.650019007571,3.4715343902673674e-06
332,9387.703684552984,3.4984507432544824e-06
333,9523.757363704102,3.5250161453610462e-06
334,9659.81104285522,3.5512355412383755e-06
335,9795.86472200634,3.577113759676745e-06
336,9931.918401157456,3.602655510478178e-06
337,10067.97206670287,3.6278653886663446e-06
338,10204.025745853987,3.65274789400708e-06
339,10340.079425005106,3.6773074078646942e-06
340,10476.133104156224,3.701548216794242e-06
341,10612.186783307343,3.7254745106758533e-06
342,10748.24046245846,3.7490903875931507e-06
343,10884.294128003874,3.7723998516059962e-06
344,11020.34780715499,3.7954068334412404e-06
345,11156.40148630611,3.81811516852012e-06
346,11292.455165457228,3.840528615682083e-06
347,11428.508844608346,3.862650856010701e-06
348,11564.562510153759,3.884485491365617e-06
349,11700.616189304877,3.906036067140479e-06
350,11836.669868455994,3.927306042502059e-06
351,11972.723547607113,3.948298813208872e-06
352,12108.777226758231,3.969017712067328e-06
353,12244.83090590935,3.989466007283575e-06
354,12380.884571454762,4.00964690056708e-06
355,12516.938250605881,4.02956354791767e-06
356,12652.991929756998,4.049219034115053e-06
357,12789.045608908116,4.068616392995818e-06
358,12925.099288059235,4.087758602525631e-06
359,13061.15295360465,4.106648586332412e-06
360,13197.206632755768,4.1252892270345404e-06
361,13333.260311906884,4.143683344905739e-06
362,13469.313991058003,4.161833718379962e-06
363,13605.36767020912,4.179743076177665e-06
364,16326.441198808663,4.491153676527083e-06
365,19047.514727408205,4.72514568506593e-06
366,21768.58826961345,4.895661172155211e-06
367,24489.661798212994,5.0136400401834455e-06
368,27210.735326812537,5.087926913493744e-06
369,29931.808869017783,5.125844734707483e-06
370,32652.882397617326,5.1335762740259645e-06
371,35373.95592621687,5.11642209213015e-06
372,38095.029468422115,5.078974277897082e-06
373,40816.10299702166,5.025233856778261e-06
374,43537.1765392269,4.958690822463332e-06
375,46258.25006782645,4.882385495670553e-06
376,48979.32359642599,4.79893889022827e-06
377,51700.39713863123,4.7106036719584946e-06
378,54421.47066723078,4.6192747736116915e-06
379,57142.54419583032,4.526541460227829e-06
380,59863.617738035566,4.433679043932337e-06
381,62584.691266635105,4.341716760688117e-06
382,65305.76479523465,4.251450724645642e-06
383,68026.8383374399,4.163468250383556e-06
384,70747.91186603945,4.0781844133096205e-06
385,73468.98539463898,3.995913379254222e-06
386,76190.05893684423,3.916787409059802e-06
387,78911.13246544376,3.840909465428866e-06
388,81632.20599404332,3.7682956150782543e-06
389,84353.27953624855,3.698901604072549e-06
390,87074.35306484811,3.632657364866882e-06
391,89795.42659344764,3.5694664830394382e-06
392,92516.5001356529,3.5092147048331346e-06
393,95237.57366425243,3.4517467675624907e-06
394,97958.64719285197,3.396842347753933e-06
395,100679.72073505721,3.344320455857006e-06
396,103400.79426365678,3.294017332279947e-06
397,106121.86779225631,3.2457844072911555e-06
398,108842.94133446156,3.1994865447910275e-06
399,111564.0148630611,3.1550005274724836e-06
400,114285.08839166064,3.1122137465657906e-06
401,117006.16193386588,3.0710230602519005e-06
402,119727.23546246543,3.031333800316895e-06
403,122448.30900467066,2.993058905016752e-06
404,125169.38253327021,2.9561181495333966e-06
405,127890.45606186974,2.9204374806392465e-06
406,130611.529604075,2.8859484173843217e-06
407,133332.60313267456,2.8525875289420413e-06
408,136053.6766612741,2.820295968530959e-06
409,138774.75020347934,2.7890190572447924e-06
410,141495.8237320789,2.7587059134281753e-06
411,144216.89726067844,2.7293091241691808e-06
412,146937.97080288368,2.7007844471969356e-06
413,149659.04433148322,2.6730905444185362e-06
414,156461.72816658777,2.6072426220653118e-06
415,163264.4120016923,2.54581090624709e-06
416,170067.0958367969,2.4883327884143023e-06
417,176869.77965829574,2.4344101887267823e-06
418,183672.4634934003,2.383698480296249e-06
419,190475.14732850486,2.3358976469497324e-06
420,197277.83116360943,2.290745158458007e-06
421,204080.51499871397,2.248010183568818e-06
422,210883.19883381855,2.20748886093304e-06
423,217685.88266892312,2.1690003938747847e-06
424,224488.56649042197,2.13238381983977e-06
425,231291.25032552652,2.0974953098206547e-06
426,238093.93416063106,2.0642059064557784e-06
427,244896.61799573564,2.032399610998493e-06
428,251699.30183084018,2.001971766587749e-06
429,258501.98566594475,1.9728276770649762e-06
430,265304.6695010493,1.944881426170458e-06
431,272107.3533225482,1.9180548648963803e-06
432,278910.0371576527,1.8922767336289578e-06
433,285712.7209927573,1.8674819068830174e-06
434,292515.4048278619,1.8436107326682916e-06
435,299318.08866296645,1.8206084581416372e-06
436,306120.77249807096,1.798424726882328e-06
437,312923.45633317553,1.7770131377838735e-06
438,319726.1401682801,1.7563308568829706e-06
439,326528.82398977893,1.7363382721519506e-06
440,333331.50782488356,1.7169986930045884e-06
441,340134.1916599881,1.6982780779021846e-06
442,346936.87549509265,1.6801447968482187e-06
443,353739.5593301972,1.6625694143294975e-06
444,360542.24316530174,1.6455245023535491e-06
445,367344.9270004063,1.6289844651860788e-06
446,374147.6108219052,1.6129253873514538e-06
447,380950.2946570097,1.5973248948859247e-06
448,387752.9784921143,1.5821620313303482e-06
