,E (eV),I (erg/s/cm**2)
0,1.360543186192048,4.346802574186091e-05
1,2.0408011735840956,4.928638270418974e-05
2,2.7210727666801198,5.299300932941091e-05
3,3.401344359776144,5.66223800635129e-05
4,4.081615952872168,5.672285542975286e-05
5,4.761873940264215,5.4334623378899504e-05
6,5.4421455333602395,5.114081177978682e-05
7,6.122417126456264,4.5313082625611077e-05
8,6.802688719552288,4.0770375164324416e-05
9,7.482946706944335,3.545418205469278e-05
10,8.16321830004036,3.067761560995197e-05
11,8.843489893136384,2.5242722792798845e-05
12,9.523761486232408,2.2423876800373075e-05
13,10.204019473624456,1.1855405911870631e-05
14,10.884291066720479,1.0648199672989142e-05
15,11.564562659816504,7.230155076797154e-06
16,12.244834252912527,5.053165756014464e-06
17,12.92510584600855,3.4288978771649263e-06
18,13.7414208731606,6.3873070502908e-07
19,14.421692466256623,6.175965489932602e-07
20,15.101964059352648,5.993899041229996e-07
21,15.782222046744696,5.785251931205707e-07
22,16.46249363984072,5.569803018600086e-07
23,17.142765232936743,5.446306031972602e-07
24,17.823036826032766,5.280945382311772e-07
25,18.503294813424816,5.121928500283598e-07
26,19.18356640652084,4.938822017897605e-07
27,19.863837999616862,4.7555322933112525e-07
28,20.544109592712886,4.5852822263498394e-07
29,21.224367580104932,4.4129381979832896e-07
30,21.90463917320096,4.20217180255525e-07
31,22.584910766296982,4.0231532553324853e-07
32,23.26518235939301,3.8011257388957946e-07
33,23.945440346785055,3.627162853191441e-07
34,24.62571193988108,3.455728631286069e-07
35,25.305983532977105,3.2419277309196945e-07
36,25.986255126073125,3.078456861884379e-07
37,26.66652671916915,2.9086357150042567e-07
38,27.210741272505174,2.771210431788977e-07
39,27.3467847065612,2.7531623704790153e-07
40,27.4828417463212,2.741131248824828e-07
41,27.618898786081196,2.7226780807779355e-07
42,27.7549558258412,2.7018075066153916e-07
43,27.89099925989722,2.628139732973862e-07
44,28.02705629965722,2.601901599207235e-07
45,28.16311333941722,2.569249635411746e-07
46,28.299170379177223,2.542636401331888e-07
47,28.435213813233247,2.519287796391008e-07
48,28.571270852993244,2.492318158649507e-07
49,28.70732789275325,2.4620704964751494e-07
50,28.843384932513246,2.435237237263286e-07
51,28.97942836656927,2.4090206811017805e-07
52,29.115485406329267,2.3787820263029093e-07
53,29.25154244608927,2.3509355971174002e-07
54,29.387599485849268,2.3320644648305864e-07
55,29.523642919905292,2.3153795167568146e-07
56,29.659699959665296,2.2860807999699343e-07
57,29.795756999425294,2.2623922902284482e-07
58,29.931814039185298,2.234236673515426e-07
59,30.067857473241315,2.2084349969925402e-07
60,30.20391451300132,2.1842337522168153e-07
61,30.339971552761316,2.1560337106317952e-07
62,30.47602859252132,2.1483803128902052e-07
63,30.612072026577344,2.1226911216021762e-07
64,30.74812906633734,2.098617130061138e-07
65,30.884186106097346,2.0718353559270542e-07
66,31.020243145857343,2.049552298692671e-07
67,31.156286579913367,2.0344483210826172e-07
68,31.292343619673364,2.0106704188229133e-07
69,31.42840065943337,1.986587129391315e-07
70,31.564457699193365,1.968345146777841e-07
71,31.70050113324939,1.956786492821238e-07
72,31.836558173009394,1.9318203816194465e-07
73,31.97261521276939,1.9102988258003822e-07
74,32.108672252529395,1.887585617013486e-07
75,32.244715686585415,1.8752979845911914e-07
76,32.38077272634541,1.8535848807278658e-07
77,32.51682976610541,1.830635382701871e-07
78,32.652886805865414,1.8206572272155535e-07
79,32.78893023992144,1.8024258843109924e-07
80,32.92498727968144,1.781608861141276e-07
81,33.06104431944144,1.7603321203048564e-07
82,33.19710135920144,1.7497403982559065e-07
83,33.33314479325746,1.7281249110822403e-07
84,33.46920183301746,1.7085349957435368e-07
85,33.60525887277746,1.696778734511878e-07
86,33.74131591253746,1.6766325826087516e-07
87,33.87735934659349,1.6587368176756448e-07
88,34.01341638635349,1.6467836291917393e-07
89,34.14947342611349,1.6328497625139267e-07
90,34.285530465873485,1.6127261350959163e-07
91,34.421573899929506,1.6040428116304807e-07
92,34.55763093968951,1.5843893506688988e-07
93,34.69368797944951,1.5753021347235966e-07
94,34.82974501920951,1.5562169842823702e-07
95,34.96578845326554,1.5395410011003228e-07
96,35.101845493025536,1.5293034504274193e-07
97,35.23790253278553,1.511873333529625e-07
98,35.37395957254554,1.4949858815807882e-07
99,35.51000300660156,1.4855210999777423e-07
100,35.646060046361555,1.4721914072723472e-07
101,35.78211708612156,1.4635777981358723e-07
102,35.918174125881556,1.4461456752208233e-07
103,36.054217559937584,1.4307102463671594e-07
104,36.19027459969758,1.4220764100047806e-07
105,36.326331639457585,1.4059536100561457e-07
106,36.46238867921758,1.3982822533842322e-07
107,36.59844571897758,1.380856137760078e-07
108,36.73448915303361,1.3748511416861716e-07
109,36.870546192793604,1.3579905545197606e-07
110,37.00660323255361,1.3515668036563236e-07
111,37.142660272313606,1.3355032605306722e-07
112,37.27870370636963,1.3246057615309213e-07
113,37.41476074612963,1.3161670364140523e-07
114,37.55081778588963,1.3034217396572864e-07
115,37.686874825649625,1.2946914363760648e-07
116,37.82291825970565,1.2814721759891917e-07
117,37.958975299465656,1.2733143478359466e-07
118,38.095032339225654,1.2605749008977539e-07
119,38.23108937898566,1.2530384406389208e-07
120,38.36713281304168,1.240181668959601e-07
121,38.503189852801675,1.2321868983032485e-07
122,38.63924689256167,1.2204668247308812e-07
123,38.77530393232168,1.2131854652807305e-07
124,38.911347366377704,1.2031435958374541e-07
125,39.0474044061377,1.1965175402106526e-07
126,39.183461445897706,1.1844651814379063e-07
127,39.3195184856577,1.1769887299769626e-07
128,39.45556191971372,1.1673951770317854e-07
129,39.59161895947372,1.1584406946654004e-07
130,39.727675999233725,1.1496470846425887e-07
131,39.86373303899372,1.141527265698311e-07
132,39.99977647304975,1.131755838292665e-07
133,40.135833512809754,1.1247885648601609e-07
134,40.27189055256975,1.1151887983224726e-07
135,40.407947592329755,1.1083556848751363e-07
136,40.54399102638577,1.0992413193470157e-07
137,40.68004806614577,1.0922530148329833e-07
138,40.81610510590577,1.085116647777782e-07
139,40.952162145665774,8.969445257359391e-08
140,41.0882055797218,8.926198761149601e-08
141,41.2242626194818,8.865679025131632e-08
142,41.3603196592418,8.819770775475995e-08
143,41.4963766990018,8.764300594389491e-08
144,41.63242013305782,8.715259226887266e-08
145,41.76847717281782,8.671444029150567e-08
146,41.90453421257782,8.615087258073306e-08
147,42.04059125233782,8.571919616424697e-08
148,42.17663468639385,8.52690827287351e-08
149,42.31269172615385,8.474149127565655e-08
150,42.44874876591385,8.43953716037215e-08
151,42.584805805673845,8.386822502104136e-08
152,42.720849239729866,8.353918597557527e-08
153,42.85690627948987,8.306922669257846e-08
154,42.99296331924987,8.254458541715901e-08
155,43.12902035900987,8.22855435209352e-08
156,43.2650637930659,8.178113340127825e-08
157,43.401120832825896,8.151038886027898e-08
158,43.53717787258589,8.102371432012626e-08
159,43.67323491234589,8.052461070084487e-08
160,43.80927834640192,8.028913896551381e-08
161,43.945335386161915,7.981317492158533e-08
162,44.08139242592192,7.970664075156048e-08
163,44.217449465681916,7.909689176844234e-08
164,44.353492899737944,7.865412999713759e-08
165,44.48954993949794,7.855910362651239e-08
166,44.62560697925794,7.795235621862241e-08
167,44.761664019017935,7.756229129043737e-08
168,44.89770745307396,7.750229414392455e-08
169,45.03376449283397,7.689572281672455e-08
170,45.169821532593964,7.709348465231723e-08
171,45.30587857235397,7.645355487554732e-08
172,45.44192200640999,7.584889540320425e-08
173,45.577979046169986,7.60952598890721e-08
174,45.71403608592998,7.546908910829243e-08
175,45.85009312568999,7.487903913876983e-08
176,45.986136559746015,7.516837665642789e-08
177,46.12219359950601,7.456455838326447e-08
178,46.258250639266016,7.397962126509988e-08
179,46.394307679026014,7.429416268526721e-08
180,46.53035111308204,7.37046373228567e-08
181,46.66640815284203,7.408745742311164e-08
182,46.802465192602035,7.348855544285117e-08
183,46.93852223236203,7.29017378206352e-08
184,47.07456566641806,7.335786976817562e-08
185,47.210622706178064,7.273826241203628e-08
186,47.34667974593806,7.21528607375486e-08
187,47.482736785698066,7.268746999031826e-08
188,47.618780219754086,7.203382833419025e-08
189,47.75483725951408,7.146038224319453e-08
190,47.89089429927408,7.209813529460342e-08
191,48.026951339034085,7.139622150083663e-08
192,48.16299477309011,7.081915408483114e-08
193,48.29905181285011,7.159541273608127e-08
194,48.43506041766452,7.155358026068279e-08
195,48.43515728755569,7.155372336750402e-08
196,48.57116589237011,7.092344705650333e-08
197,48.707222932130115,7.186017269543697e-08
198,48.84326636618613,7.109111093538694e-08
199,48.97932340594613,7.039905900796743e-08
200,49.11538044570613,6.977603528473585e-08
201,49.251437485466134,7.066013638438173e-08
202,49.38748091952216,6.993154319607775e-08
203,49.52353795928216,6.928525506742672e-08
204,49.65959499904216,7.033575973121379e-08
205,49.79565203880216,6.956960641031995e-08
206,49.93169547285818,6.888953072703328e-08
207,50.06775251261818,7.011995670153395e-08
208,50.20380955237818,6.929900366173871e-08
209,50.33986659213818,6.857053605307643e-08
210,50.47591002619421,7.002623607742584e-08
211,50.61196706595421,6.915216384379014e-08
212,50.74802410571421,6.835472153621685e-08
213,50.884081145474205,6.765747257098261e-08
214,51.02007355950089,6.912401518841183e-08
215,51.02017559955957,6.91241534363224e-08
216,51.15618161929023,6.863906741209801e-08
217,51.29223865905023,6.78632395943558e-08
218,51.42829569881023,6.957423754220224e-08
219,51.56433913286626,6.867071784216928e-08
220,51.700396172626256,6.783289275199413e-08
221,51.83645321238625,6.707636521950229e-08
222,51.97251025214625,6.883185198500062e-08
223,52.10855368620228,6.794774054295834e-08
224,52.24455848141958,6.710807612878215e-08
225,52.244662970504976,6.710821034489386e-08
226,52.38066776572228,6.940245315908182e-08
227,52.516724805482276,6.843287470907519e-08
228,52.652768239538304,6.75278848733437e-08
229,52.7888252792983,6.669208937227406e-08
230,52.92482939423041,6.902014934012868e-08
231,52.924935243886196,6.902028738042344e-08
232,53.060939358818295,6.802886738308778e-08
233,53.19698279287432,6.711763508475897e-08
234,53.33303983263433,6.628588732537024e-08
235,53.469096872394324,6.856851498311086e-08
236,53.60515391215433,6.756677439741832e-08
237,53.74119734621035,6.664056801448255e-08
238,53.877254385970346,6.580446679691657e-08
239,54.01331142573034,6.816381824668928e-08
240,54.14936846549035,6.715339398070302e-08
241,54.285411899546375,6.621627410593545e-08
242,54.55752597906638,6.785507157885612e-08
243,61.36021469861866,5.7396351945964075e-08
244,68.16288981246697,5.766447910143493e-08
245,74.96557853201926,5.759374033868406e-08
246,81.76825364586757,5.7299624059715376e-08
247,88.57094236541987,5.695386764792473e-08
248,95.37363108497215,5.667077256714691e-08
249,102.17630619882047,5.6549684252185345e-08
250,108.97899491837275,5.663723631277652e-08
251,115.78168363792504,5.6948526272868174e-08
252,122.58435875177334,5.7472503353905604e-08
253,129.38704747132562,5.817784666547898e-08
254,136.05367915111793,5.901811882479605e-08
255,136.1897361908779,5.9035615041979594e-08
256,204.0805119238249,7.013808472316032e-08
257,272.10735830223587,8.200604510046224e-08
258,340.1341910749428,9.492546947893865e-08
259,408.1610238476498,1.082972395013311e-07
260,476.18787022606074,1.214875066748923e-07
261,544.2147029987677,1.3428619687221226e-07
262,612.2415493771787,1.466611236372093e-07
263,680.2683821498856,1.5863303130181668e-07
264,748.2952149225927,1.7022304181027163e-07
265,816.3220613010035,1.8147605110011504e-07
266,884.3488940737104,1.9242722023384172e-07
267,952.3757404521215,2.0310453791987067e-07
268,1020.4025732248285,2.1353084896751464e-07
269,1088.4294196032395,2.2372521026122972e-07
270,1156.4562523759464,2.3370376957747177e-07
271,1224.4830851486533,2.434804186007836e-07
272,1292.5099315270643,2.5306724213815703e-07
273,1360.5367642997712,2.6247485040005065e-07
274,1496.590443450889,2.8078905220608403e-07
275,1632.644122602007,2.9848709532896633e-07
276,1768.697801753125,3.1562125695978544e-07
277,1904.7514672985392,3.322350606055295e-07
278,2040.805146449657,3.4836535387967523e-07
279,2176.8588256007747,3.640437542695274e-07
280,2312.912504751893,3.7929771899043424e-07
281,2448.966183903011,3.9415133304580514e-07
282,2585.0198630541286,4.0862591036852324e-07
283,2721.0735285995424,4.227404577481926e-07
284,2857.1272077506605,4.3651204941688934e-07
285,2993.180886901778,4.4995610705111526e-07
286,3129.2345660528963,4.6308664425264473e-07
287,3265.288245204014,4.759164575863179e-07
288,3401.3419107494283,4.884572834793622e-07
289,3537.3955899005464,5.007199385738498e-07
290,3673.4492690516645,5.127144185830121e-07
291,3809.502948202782,5.244500003481724e-07
292,3945.5566273539002,5.359353195775601e-07
293,4081.610306505018,5.471784390070992e-07
294,4217.663972050432,5.581869059041422e-07
295,4353.717651201549,5.689678095272977e-07
296,4489.771330352668,5.795278155944138e-07
297,4625.825009503786,5.898732110358278e-07
298,4761.878688654903,6.000099378145769e-07
299,4897.932354200318,6.099436197434875e-07
300,5033.986033351435,6.196795967071576e-07
301,5170.039712502553,6.292229383517125e-07
302,5306.0933916536715,6.385784707217667e-07
303,5442.147070804789,6.477507949978205e-07
304,5578.200749955907,6.567443028702491e-07
305,5714.254415501321,6.655631916162143e-07
306,5850.308094652439,6.74211482699612e-07
307,5986.361773803556,6.826930259490085e-07
308,6122.415452954675,6.910115164251346e-07
309,6258.469132105793,6.991705033630952e-07
310,6394.522797651206,7.07173397788609e-07
311,6530.576476802325,7.150234873235138e-07
312,6666.630155953442,7.227239346383153e-07
313,6802.68383510456,7.302777912779705e-07
314,6938.737514255678,7.376880016180087e-07
315,7074.791179801093,7.449574088797766e-07
316,7210.8448589522095,7.52088764986435e-07
317,7346.898538103329,7.590847283001564e-07
318,7482.952217254446,7.659478736283421e-07
319,7619.005896405564,7.726806948697598e-07
320,7755.059575556682,7.792856101979569e-07
321,7891.113241102096,7.857649630273069e-07
322,8027.166920253213,7.921210325143998e-07
323,8163.220599404332,7.983560274185608e-07
324,8299.27427855545,8.044720954700009e-07
325,8435.327957706568,8.104713246368567e-07
326,8571.38162325198,8.163557443247699e-07
327,8707.435302403099,8.221273335626264e-07
328,8843.488981554217,8.277880150549573e-07
329,8979.542660705336,8.333396630527324e-07
330,9115.596339856453,8.387841040377794e-07
331,9251.650019007571,8.441231182633505e-07
332,9387.703684552984,8.493584410054066e-07
333,9523.757363704102,8.544917688372329e-07
334,9659.81104285522,8.595247543759116e-07
335,9795.86472200634,8.644590119018388e-07
336,9931.918401157456,8.692961182539359e-07
337,10067.97206670287,8.740376133310036e-07
338,10204.025745853987,8.786850052496699e-07
339,10340.079425005106,8.832397652167642e-07
340,10476.133104156224,8.877033330520601e-07
341,10612.186783307343,8.920771173706228e-07
342,10748.24046245846,8.963624967730337e-07
343,10884.294128003874,9.005608193209611e-07
344,11020.34780715499,9.046734085146478e-07
345,11156.40148630611,9.087015567911293e-07
346,11292.455165457228,9.12646531642701e-07
347,11428.508844608346,9.165095751113414e-07
348,11564.562510153759,9.20291902991497e-07
349,11700.616189304877,9.239947110265034e-07
350,11836.669868455994,9.276191678112206e-07
351,11972.723547607113,9.311664210102646e-07
352,12108.777226758231,9.346375961223994e-07
353,12244.83090590935,9.38033797738466e-07
354,12380.884571454762,9.413561083922087e-07
355,12516.938250605881,9.446055944528789e-07
356,12652.991929756998,9.477832991898468e-07
357,12789.045608908116,9.508902483207877e-07
358,12925.099288059235,9.539274492079549e-07
359,13061.15295360465,9.568958902514502e-07
360,13197.206632755768,9.597965458749596e-07
361,13333.260311906884,9.62630369915725e-07
362,13469.313991058003,9.653983020662772e-07
363,13605.36767020912,9.68101264828566e-07
364,16326.441198808663,1.0098132512935687e-06
365,19047.514727408205,1.0319460111115303e-06
366,21768.58826961345,1.0391927450782756e-06
367,24489.661798212994,1.0352303161605302e-06
368,27210.735326812537,1.0230142359886171e-06
369,29931.808869017783,1.0049442665370695e-06
370,32652.882397617326,9.829577527971997e-07
371,35373.95592621687,9.585928468466902e-07
372,38095.029468422115,9.330395038540856e-07
373,40816.10299702166,9.071794085533706e-07
374,43537.1765392269,8.816406705367097e-07
375,46258.25006782645,8.568369041266375e-07
376,48979.32359642599,8.33025704896154e-07
377,51700.39713863123,8.103410437740749e-07
378,54421.47066723078,7.888375092675601e-07
379,57142.54419583032,7.685168613015128e-07
380,59863.617738035566,7.493455204103278e-07
381,62584.691266635105,7.312704188185511e-07
382,65305.76479523465,7.142279060169593e-07
383,68026.8383374399,6.981531826740165e-07
384,70747.91186603945,6.829793176653657e-07
385,73468.98539463898,6.686411168428989e-07
386,76190.05893684423,6.5507753213495e-07
387,78911.13246544376,6.422321827019437e-07
388,81632.20599404332,6.300509680364256e-07
389,84353.27953624855,6.18485007122043e-07
390,87074.35306484811,6.074897075985072e-07
391,89795.42659344764,5.970252734885627e-07
392,92516.5001356529,5.87052433593775e-07
393,95237.57366425243,5.775378239900699e-07
394,97958.64719285197,5.684474660954633e-07
395,100679.72073505721,5.59751412097501e-07
396,103400.79426365678,5.514225646215619e-07
397,106121.86779225631,5.434363395284511e-07
398,108842.94133446156,5.357703754311144e-07
399,111564.0148630611,5.284042829292224e-07
400,114285.08839166064,5.213194278522396e-07
401,117006.16193386588,5.144987426598713e-07
402,119727.23546246543,5.079265615529655e-07
403,122448.30900467066,5.015884774517369e-07
404,125169.38253327021,4.954712147413759e-07
405,127890.45606186974,4.895625185042302e-07
406,130611.529604075,4.838510562687438e-07
407,133332.60313267456,4.783263311680294e-07
408,136053.6766612741,4.729786045188272e-07
409,138774.75020347934,4.6779882775946586e-07
410,141495.8237320789,4.6277858017475296e-07
411,144216.89726067844,4.5791001545505167e-07
412,146937.97080288368,4.5318581155574297e-07
413,149659.04433148322,4.485991275019291e-07
414,156461.72816658777,4.3769305517938746e-07
415,163264.4120016923,4.275180320991636e-07
416,170067.0958367969,4.179974954986789e-07
417,176869.77965829574,4.090655606949048e-07
418,183672.4634934003,4.0066518922190486e-07
419,190475.14732850486,3.927467244693523e-07
420,197277.83116360943,3.852667138928676e-07
421,204080.51499871397,3.7818695068975156e-07
422,210883.19883381855,3.714736914114428e-07
423,217685.88266892312,3.650970100122347e-07
424,224488.56649042197,3.590302626697793e-07
425,231291.25032552652,3.532496415900582e-07
426,238093.93416063106,3.4773379999371647e-07
427,244896.61799573564,3.424635360602697e-07
428,251699.30183084018,3.374215250012185e-07
429,258501.98566594475,3.3259209072007907e-07
430,265304.6695010493,3.279610104320924e-07
431,272107.3533225482,3.2351534677967946e-07
432,278910.0371576527,3.192433029572577e-07
433,285712.7209927573,3.1513409733672575e-07
434,292515.4048278619,3.111778541505511e-07
435,299318.08866296645,3.073655088327328e-07
436,306120.77249807096,3.036887244318022e-07
437,312923.45633317553,3.001398187479809e-07
438,319726.1401682801,2.967116998933513e-07
439,326528.82398977893,2.933978096539292e-07
440,333331.50782488356,2.9019207304408037e-07
441,340134.1916599881,2.8708885393486823e-07
442,346936.87549509265,2.840829151280021e-07
443,353739.5593301972,2.811693829409688e-07
444,360542.24316530174,2.7834371574840016e-07
445,367344.9270004063,2.7560167554644334e-07
446,374147.6108219052,2.7293930228995893e-07
447,380950.2946570097,2.7035289125843514e-07
448,387752.9784921143,2.678389722338722e-07
449,394555.66232721886,2.653942909142368e-07
