,E (eV),I (erg/s/cm**2)
0,1.360543186192048,0.0004447037541894448
1,2.0408011735840956,0.0004957196962020976
2,2.7210727666801198,0.00047460235111444646
3,3.401344359776144,0.00047559318670258954
4,4.081615952872168,0.0005549997198718149
5,4.761873940264215,0.0006366050959700545
6,5.4421455333602395,0.0007122917348370403
7,6.122417126456264,0.0007688964166190347
8,6.802688719552288,0.0008005372938843952
9,7.482946706944335,0.0007883340218153421
10,8.16321830004036,0.0007914711750932546
11,8.843489893136384,0.0007349205473931862
12,9.523761486232408,0.000667946897072951
13,10.204019473624456,0.00035113622813311466
14,10.884291066720479,0.00026450940777669073
15,11.564562659816504,0.0001956211665037482
16,12.244834252912527,0.00013340747961144904
17,12.92510584600855,6.936782762477643e-05
18,13.7414208731606,1.4789078270856522e-05
19,14.421692466256623,1.4256111551539316e-05
20,15.101964059352648,1.3771724818044003e-05
21,15.782222046744696,1.332875098115197e-05
22,16.46249363984072,1.2997471945688827e-05
23,17.142765232936743,1.2664332204984153e-05
24,17.823036826032766,1.2236112358700653e-05
25,18.503294813424816,1.1926014351428056e-05
26,19.18356640652084,1.1520406886929433e-05
27,19.863837999616862,1.1305048445761225e-05
28,20.544109592712886,1.0981852855787393e-05
29,21.224367580104932,1.0626930840239498e-05
30,21.90463917320096,1.0328791219609298e-05
31,22.584910766296982,1.0091694683855806e-05
32,23.26518235939301,9.894043356236992e-06
33,23.945440346785055,9.723119432387111e-06
34,24.62571193988108,9.55455879420706e-06
35,25.305983532977105,9.31826923619027e-06
36,25.986255126073125,9.247291813976012e-06
37,26.66652671916915,9.121703917124754e-06
38,27.210741272505174,8.96855974480292e-06
39,27.3467847065612,9.033021439137334e-06
40,27.4828417463212,9.04095570347624e-06
41,27.618898786081196,8.960688048165887e-06
42,27.7549558258412,8.979589060334288e-06
43,27.89099925989722,8.96622203221052e-06
44,28.02705629965722,8.923348785996752e-06
45,28.16311333941722,8.887976500429155e-06
46,28.299170379177223,8.934082842739234e-06
47,28.435213813233247,8.889542222118627e-06
48,28.571270852993244,8.874221612776978e-06
49,28.70732789275325,8.905850958353856e-06
50,28.843384932513246,8.919079186441454e-06
51,28.97942836656927,8.862537349979421e-06
52,29.115485406329267,8.820154952392717e-06
53,29.25154244608927,8.892980734529636e-06
54,29.387599485849268,8.874214948921314e-06
55,29.523642919905292,8.777805127930496e-06
56,29.659699959665296,8.799204762013214e-06
57,29.795756999425294,8.824529100931993e-06
58,29.931814039185298,8.838004942362231e-06
59,30.067857473241315,8.812287125593578e-06
60,30.20391451300132,8.760498262525632e-06
61,30.339971552761316,8.745531384997928e-06
62,30.47602859252132,8.807147889638441e-06
63,30.612072026577344,8.791946589745143e-06
64,30.74812906633734,8.68857826060862e-06
65,30.884186106097346,8.790406047968954e-06
66,31.020243145857343,8.779439983743825e-06
67,31.156286579913367,8.748608530450561e-06
68,31.292343619673364,8.735803038996835e-06
69,31.42840065943337,8.73036063263709e-06
70,31.564457699193365,8.742066756635557e-06
71,31.70050113324939,8.768052286657515e-06
72,31.836558173009394,8.726579786590185e-06
73,31.97261521276939,8.687479136940415e-06
74,32.108672252529395,8.707247026332739e-06
75,32.244715686585415,8.773945981933328e-06
76,32.38077272634541,8.691213560821351e-06
77,32.51682976610541,8.705850625682903e-06
78,32.652886805865414,8.679646370219687e-06
79,32.78893023992144,8.69219392521466e-06
80,32.92498727968144,8.709625133623405e-06
81,33.06104431944144,8.687532232084072e-06
82,33.19710135920144,8.69513109337204e-06
83,33.33314479325746,8.601671654878077e-06
84,33.46920183301746,8.715111597241914e-06
85,33.60525887277746,8.69972412438202e-06
86,33.74131591253746,8.67846960005046e-06
87,33.87735934659349,8.647261031626548e-06
88,34.01341638635349,8.574366775886875e-06
89,34.14947342611349,8.634708701834503e-06
90,34.285530465873485,8.619049267208699e-06
91,34.421573899929506,8.570409291685363e-06
92,34.55763093968951,8.595221835992306e-06
93,34.69368797944951,8.560231726269086e-06
94,34.82974501920951,8.617802884430527e-06
95,34.96578845326554,8.541826121684378e-06
96,35.101845493025536,8.512659788184053e-06
97,35.23790253278553,8.548925877631932e-06
98,35.37395957254554,8.489991310983085e-06
99,35.51000300660156,8.520226144471908e-06
100,35.646060046361555,8.513663961443832e-06
101,35.78211708612156,8.479115208364253e-06
102,35.918174125881556,8.484665583995557e-06
103,36.054217559937584,8.374759197604946e-06
104,36.19027459969758,8.484855861284926e-06
105,36.326331639457585,8.457366267606184e-06
106,36.46238867921758,8.399753338319308e-06
107,36.59844571897758,8.373611678752496e-06
108,36.73448915303361,8.33672073267529e-06
109,36.870546192793604,8.35539524834162e-06
110,37.00660323255361,8.317605538730693e-06
111,37.142660272313606,8.259238287894797e-06
112,37.27870370636963,8.25669580904385e-06
113,37.41476074612963,8.256407436407307e-06
114,37.55081778588963,8.249321413186798e-06
115,37.686874825649625,8.301627561824607e-06
116,37.82291825970565,8.257969849308125e-06
117,37.958975299465656,8.222533966358732e-06
118,38.095032339225654,8.260206702789968e-06
119,38.23108937898566,8.269240742975038e-06
120,38.36713281304168,8.299465338021229e-06
121,38.503189852801675,8.250867032801548e-06
122,38.63924689256167,8.218491271187013e-06
123,38.77530393232168,8.21793480843592e-06
124,38.911347366377704,8.222773937883063e-06
125,39.0474044061377,8.211219484185102e-06
126,39.183461445897706,8.233320242446003e-06
127,39.3195184856577,8.20158903276679e-06
128,39.45556191971372,8.206571178448117e-06
129,39.59161895947372,8.167438485185358e-06
130,39.727675999233725,8.190808702477518e-06
131,39.86373303899372,8.127088089492628e-06
132,39.99977647304975,8.218687339019995e-06
133,40.135833512809754,8.148037754232977e-06
134,40.27189055256975,8.14002590015204e-06
135,40.407947592329755,8.11880426444254e-06
136,40.54399102638577,8.103378751888842e-06
137,40.68004806614577,8.084277912851143e-06
138,40.81610510590577,8.061612741181126e-06
139,40.952162145665774,4.125710428103533e-06
140,41.0882055797218,4.091591642250931e-06
141,41.2242626194818,4.096979469584659e-06
142,41.3603196592418,4.049125987421186e-06
143,41.4963766990018,4.050369143935487e-06
144,41.63242013305782,4.025293109095324e-06
145,41.76847717281782,3.9610080920339965e-06
146,41.90453421257782,3.943032623067777e-06
147,42.04059125233782,3.914251303489998e-06
148,42.17663468639385,3.887658155727419e-06
149,42.31269172615385,3.878415618047186e-06
150,42.44874876591385,3.841281651370451e-06
151,42.584805805673845,3.819727929848857e-06
152,42.720849239729866,3.785055227867226e-06
153,42.85690627948987,3.7546844173066877e-06
154,42.99296331924987,3.717299719394744e-06
155,43.12902035900987,3.7139851731521735e-06
156,43.2650637930659,3.718747432517818e-06
157,43.401120832825896,3.670391115914854e-06
158,43.53717787258589,3.6480832007770544e-06
159,43.67323491234589,3.5928509713645614e-06
160,43.80927834640192,3.554076850390087e-06
161,43.945335386161915,3.536805468844961e-06
162,44.08139242592192,3.554381090010321e-06
163,44.217449465681916,3.5233699098799495e-06
164,44.353492899737944,3.498887517186947e-06
165,44.48954993949794,3.4527854470949495e-06
166,44.62560697925794,3.387964795276889e-06
167,44.761664019017935,3.3566972349124043e-06
168,44.89770745307396,3.3765614110575295e-06
169,45.03376449283397,3.3555371691448506e-06
170,45.169821532593964,3.358095327658567e-06
171,45.30587857235397,3.3247399483199093e-06
172,45.44192200640999,3.225720048034976e-06
173,45.577979046169986,3.2110162006057985e-06
174,45.71403608592998,3.210462024120361e-06
175,45.85009312568999,3.1842545527330753e-06
176,45.986136559746015,3.1838404641115705e-06
177,46.12219359950601,3.165166844157426e-06
178,46.258250639266016,3.1300097641116203e-06
179,46.394307679026014,3.040245753579984e-06
180,46.53035111308204,3.0825551663810692e-06
181,46.66640815284203,3.0385993483450687e-06
182,46.802465192602035,3.0127991897871703e-06
183,46.93852223236203,3.0142041614009266e-06
184,47.07456566641806,2.9895138763275526e-06
185,47.210622706178064,2.9309221661008404e-06
186,47.34667974593806,2.9601998521931234e-06
187,47.482736785698066,2.912358312753285e-06
188,47.618780219754086,2.876459944622519e-06
189,47.75483725951408,2.852816521223387e-06
190,47.89089429927408,2.853478670719711e-06
191,48.026951339034085,2.8108893124129614e-06
192,48.16299477309011,2.755070090542912e-06
193,48.29905181285011,2.813125110017579e-06
194,48.43506041766452,2.8764387738823814e-06
195,48.43515728755569,2.8764445267462894e-06
196,48.57116589237011,2.8457387342684e-06
197,48.707222932130115,2.8252660564770354e-06
198,48.84326636618613,2.8353692689773455e-06
199,48.97932340594613,2.7788311487417903e-06
200,49.11538044570613,2.7041442545625153e-06
201,49.251437485466134,2.788604888426605e-06
202,49.38748091952216,2.744014561755316e-06
203,49.52353795928216,2.698274658619576e-06
204,49.65959499904216,2.6695850419897386e-06
205,49.79565203880216,2.675504856598197e-06
206,49.93169547285818,2.6410128333815325e-06
207,50.06775251261818,2.587056994172436e-06
208,50.20380955237818,2.642856973988317e-06
209,50.33986659213818,2.6167238838404674e-06
210,50.47591002619421,2.5720690384643596e-06
211,50.61196706595421,2.526608869024942e-06
212,50.74802410571421,2.5339048502102755e-06
213,50.884081145474205,2.508247620662998e-06
214,51.02007355950089,2.47081559528347e-06
215,51.02017559955957,2.4708205369103775e-06
216,51.15618161929023,2.6009626514938946e-06
217,51.29223865905023,2.5545281896854957e-06
218,51.42829569881023,2.5209064208980373e-06
219,51.56433913286626,2.47201308906879e-06
220,51.700396172626256,2.4297649237434602e-06
221,51.83645321238625,2.440059624922658e-06
222,51.97251025214625,2.4064588997928947e-06
223,52.10855368620228,2.3635536283805618e-06
224,52.24455848141958,2.5023382446374274e-06
225,52.244662970504976,2.5023432493124046e-06
226,52.38066776572228,2.4529315339231687e-06
227,52.516724805482276,2.410976653271648e-06
228,52.652768239538304,2.3655538008130025e-06
229,52.7888252792983,2.3239417687142565e-06
230,52.92482939423041,2.319820839296605e-06
231,52.924935243886196,2.3198254789381518e-06
232,53.060939358818295,2.2856590416173e-06
233,53.19698279287432,2.243583157725874e-06
234,53.33303983263433,2.414527651531327e-06
235,53.469096872394324,2.3590733743341123e-06
236,53.60515391215433,2.309087469955823e-06
237,53.74119734621035,2.2625419651126008e-06
238,53.877254385970346,2.219132448840141e-06
239,54.01331142573034,2.1861091871025076e-06
240,54.14936846549035,2.1568053275582335e-06
241,54.285411899546375,2.1120981296763532e-06
242,54.55752597906638,2.26409023266739e-06
243,61.36021469861866,1.440277007054375e-06
244,68.16288981246697,1.3597926177628985e-06
245,74.96557853201926,1.3030942464402208e-06
246,81.76825364586757,1.2478945350288655e-06
247,88.57094236541987,1.1963562659839496e-06
248,95.37363108497215,1.1476639567841695e-06
249,102.17630619882047,1.103713914594502e-06
250,108.97899491837275,1.064274549871173e-06
251,115.78168363792504,1.0285110242053205e-06
252,122.58435875177334,9.95997792786752e-07
253,129.38704747132562,9.661861699641953e-07
254,136.05367915111793,9.391551689908508e-07
255,136.1897361908779,9.386237983576492e-07
256,204.0805119238249,7.715932233592434e-07
257,272.10735830223587,8.278476660430235e-07
258,340.1341910749428,9.111797566913329e-07
259,408.1610238476498,9.775614959149535e-07
260,476.18787022606074,1.0452962741354654e-06
261,544.2147029987677,1.1246936605920609e-06
262,612.2415493771787,1.2200931144285502e-06
263,680.2683821498856,1.3238093662636602e-06
264,748.2952149225927,1.4241526984619527e-06
265,816.3220613010035,1.5215271591702074e-06
266,884.3488940737104,1.616332750410097e-06
267,952.3757404521215,1.7088707564830687e-06
268,1020.4025732248285,1.7993756597345385e-06
269,1088.4294196032395,1.888035264818636e-06
270,1156.4562523759464,1.9750033590311638e-06
271,1224.4830851486533,2.0604084634142793e-06
272,1292.5099315270643,2.1443596869598593e-06
273,1360.5367642997712,2.2269508583858e-06
274,1496.590443450889,2.388370184134254e-06
275,1632.644122602007,2.545211888683792e-06
276,1768.697801753125,2.697910496315272e-06
277,1904.7514672985392,2.8468210302581742e-06
278,2040.805146449657,2.992239492680974e-06
279,2176.8588256007747,3.1344165990147517e-06
280,2312.912504751893,3.273567640111642e-06
281,2448.966183903011,3.409879571154154e-06
282,2585.0198630541286,3.5435163237365515e-06
283,2721.0735285995424,3.6746228375994987e-06
284,2857.1272077506605,3.8033282777375506e-06
285,2993.180886901778,3.929748407029711e-06
286,3129.2345660528963,4.053987647964728e-06
287,3265.288245204014,4.176140678799296e-06
288,3401.3419107494283,4.296293727855661e-06
289,3537.3955899005464,4.414525738396559e-06
290,3673.4492690516645,4.530909177214393e-06
291,3809.502948202782,4.645510863789752e-06
292,3945.5566273539002,4.758392605581265e-06
293,4081.610306505018,4.869611754090444e-06
294,4217.663972050432,4.979221656389871e-06
295,4353.717651201549,5.087272135302568e-06
296,4489.771330352668,5.193809748987851e-06
297,4625.825009503786,5.298878158392485e-06
298,4761.878688654903,5.4025183884050975e-06
299,4897.932354200318,5.504769052567676e-06
300,5033.986033351435,5.6056666193901464e-06
301,5170.039712502553,5.705245510082639e-06
302,5306.0933916536715,5.803538326743594e-06
303,5442.147070804789,5.900575984853112e-06
304,5578.200749955907,5.996387843632716e-06
305,5714.254415501321,6.091001815866193e-06
306,5850.308094652439,6.184444525469463e-06
307,5986.361773803556,6.27674132385423e-06
308,6122.415452954675,6.367916432115996e-06
309,6258.469132105793,6.4579930065445305e-06
310,6394.522797651206,6.546993200358212e-06
311,6530.576476802325,6.634938275226732e-06
312,6666.630155953442,6.721848592529477e-06
313,6802.68383510456,6.807743709933535e-06
314,6938.737514255678,6.8926424272000105e-06
315,7074.791179801093,6.97656281471528e-06
316,7210.8448589522095,7.059522311661167e-06
317,7346.898538103329,7.141537679664461e-06
318,7482.952217254446,7.222625103933674e-06
319,7619.005896405564,7.30280020199277e-06
320,7755.059575556682,7.3820780561967175e-06
321,7891.113241102096,7.460473238942916e-06
322,8027.166920253213,7.5379998798977115e-06
323,8163.220599404332,7.614671618059774e-06
324,8299.27427855545,7.69050167574722e-06
325,8435.327957706568,7.76550286814713e-06
326,8571.38162325198,7.839687612566945e-06
327,8707.435302403099,7.913067992505959e-06
328,8843.488981554217,7.985655702474512e-06
329,8979.542660705336,8.057462116744062e-06
330,9115.596339856453,8.128498285623613e-06
331,9251.650019007571,8.198774960593754e-06
332,9387.703684552984,8.268302585218235e-06
333,9523.757363704102,8.337091361218654e-06
334,9659.81104285522,8.405151191495792e-06
335,9795.86472200634,8.47249172890736e-06
336,9931.918401157456,8.539122387138656e-06
337,10067.97206670287,8.605052332219612e-06
338,10204.025745853987,8.670290537555228e-06
339,10340.079425005106,8.734845730222555e-06
340,10476.133104156224,8.798726436055716e-06
341,10612.186783307343,8.86194098641842e-06
342,10748.24046245846,8.924497518932501e-06
343,10884.294128003874,8.986403975379919e-06
344,11020.34780715499,9.047668150222139e-06
345,11156.40148630611,9.108297639652579e-06
346,11292.455165457228,9.168299881327636e-06
347,11428.508844608346,9.227682152961186e-06
348,11564.562510153759,9.286451570288026e-06
349,11700.616189304877,9.344615134443392e-06
350,11836.669868455994,9.402179668756056e-06
351,11972.723547607113,9.459151870633057e-06
352,12108.777226758231,9.515538299028564e-06
353,12244.83090590935,9.571345391665852e-06
354,12380.884571454762,9.626579444737105e-06
355,12516.938250605881,9.681246664377498e-06
356,12652.991929756998,9.735353113844547e-06
357,12789.045608908116,9.788904748356472e-06
358,12925.099288059235,9.841907413937817e-06
359,13061.15295360465,9.894366841643883e-06
360,13197.206632755768,9.946288685981e-06
361,13333.260311906884,9.997678475441291e-06
362,13469.313991058003,1.0048541645398442e-05
363,13605.36767020912,1.009888354401215e-05
364,16326.441198808663,1.1003749847220259e-05
365,19047.514727408205,1.173715305361059e-05
366,21768.58826961345,1.232625502717354e-05
367,24489.661798212994,1.2792419428158394e-05
368,27210.735326812537,1.3152984813556291e-05
369,29931.808869017783,1.3422344446878404e-05
370,32652.882397617326,1.3612653621733526e-05
371,35373.95592621687,1.3734321773176066e-05
372,38095.029468422115,1.3796371589575424e-05
373,40816.10299702166,1.3806709663100032e-05
374,43537.1765392269,1.3772334613201713e-05
375,46258.25006782645,1.3699496324086292e-05
376,48979.32359642599,1.3593820433772885e-05
377,51700.39713863123,1.3460400872731015e-05
378,54421.47066723078,1.3303864068403367e-05
379,57142.54419583032,1.3128430169575491e-05
380,59863.617738035566,1.2937943467058251e-05
381,62584.691266635105,1.2735905079035053e-05
382,65305.76479523465,1.2525498597290645e-05
383,68026.8383374399,1.2309584028317888e-05
384,70747.91186603945,1.2090757594172037e-05
385,73468.98539463898,1.1871296712069176e-05
386,76190.05893684423,1.1653246052009857e-05
387,78911.13246544376,1.1438386260918778e-05
388,81632.20599404332,1.1228235522213564e-05
389,84353.27953624855,1.102406127053406e-05
390,87074.35306484811,1.0826960690660364e-05
391,89795.42659344764,1.063779834872613e-05
392,92516.5001356529,1.0457240859142654e-05
393,95237.57366425243,1.0285113556024546e-05
394,97958.64719285197,1.01206660073341e-05
395,100679.72073505721,9.963355963634348e-06
396,103400.79426365678,9.812692795981899e-06
397,106121.86779225631,9.668231393064833e-06
398,108842.94133446156,9.529566885843375e-06
399,111564.0148630611,9.396330120109791e-06
400,114285.08839166064,9.268183719490997e-06
401,117006.16193386588,9.144818684057508e-06
402,119727.23546246543,9.025951389823228e-06
403,122448.30900467066,8.911321007070651e-06
404,125169.38253327021,8.800687191629015e-06
405,127890.45606186974,8.693828084265383e-06
406,130611.529604075,8.590538528318052e-06
407,133332.60313267456,8.490628491912419e-06
408,136053.6766612741,8.393921678418347e-06
409,138774.75020347934,8.300254278289715e-06
410,141495.8237320789,8.209473859271273e-06
411,144216.89726067844,8.12143838077415e-06
412,146937.97080288368,8.036015301318662e-06
413,149659.04433148322,7.95308078250258e-06
414,156461.72816658777,7.755889566394773e-06
415,163264.4120016923,7.571926733896678e-06
416,170067.0958367969,7.399806436390042e-06
417,176869.77965829574,7.238336143806408e-06
418,183672.4634934003,7.086483466343239e-06
419,190475.14732850486,6.9433496624263956e-06
420,197277.83116360943,6.808148289831339e-06
421,204080.51499871397,6.680187875544081e-06
422,210883.19883381855,6.558857735852397e-06
423,217685.88266892312,6.443616288557516e-06
424,224488.56649042197,6.333981367913191e-06
425,231291.25032552652,6.229522138735355e-06
426,238093.93416063106,6.129852307911169e-06
427,244896.61799573564,6.034624413707257e-06
428,251699.30183084018,5.943524963276078e-06
429,258501.98566594475,5.856270304183953e-06
430,265304.6695010493,5.772603085729323e-06
431,272107.3533225482,5.692289223771007e-06
432,278910.0371576527,5.615115274509198e-06
433,285712.7209927573,5.54088616849015e-06
434,292515.4048278619,5.469423228302246e-06
435,299318.08866296645,5.400562457221284e-06
436,306120.77249807096,5.3341530268509845e-06
437,312923.45633317553,5.270055954542388e-06
438,319726.1401682801,5.2081429441587984e-06
439,326528.82398977893,5.148295352903886e-06
440,333331.50782488356,5.0904032859337255e-06
441,340134.1916599881,5.034364784871852e-06
442,346936.87549509265,4.980085113444247e-06
443,353739.5593301972,4.9274761114658394e-06
444,360542.24316530174,4.876455629460108e-06
445,367344.9270004063,4.826947006640793e-06
446,374147.6108219052,4.778878615982073e-06
447,380950.2946570097,4.732183448996019e-06
448,387752.9784921143,4.686798738098666e-06
449,394555.66232721886,4.642665623535433e-06
