,E (eV),I (erg/s/cm**2)
0,1.360543186192048,0.0006980162788489171
1,2.0408011735840956,0.0008025315564622655
2,2.7210727666801198,0.0007580012781093869
3,3.401344359776144,0.000684698208955961
4,4.081615952872168,0.0008098970873731193
5,4.761873940264215,0.0009523120478426836
6,5.4421455333602395,0.0010984572532068276
7,6.122417126456264,0.0012159724364839354
8,6.802688719552288,0.001319589912324462
9,7.482946706944335,0.001397361861350319
10,8.16321830004036,0.0014629095598010528
11,8.843489893136384,0.0015059765990654485
12,9.523761486232408,0.0014681531944029666
13,10.204019473624456,0.0007220049661552578
14,10.884291066720479,0.0006368738938494761
15,11.564562659816504,0.00046334689783205805
16,12.244834252912527,0.000327119363853144
17,12.92510584600855,0.00015878091167773403
18,13.7414208731606,1.7149520051871858e-05
19,14.421692466256623,1.619559599442832e-05
20,15.101964059352648,1.5515150035983725e-05
21,15.782222046744696,1.4996280280312155e-05
22,16.46249363984072,1.4997098175604777e-05
23,17.142765232936743,1.4720483500395697e-05
24,17.823036826032766,1.4521428584853073e-05
25,18.503294813424816,1.4243587414253985e-05
26,19.18356640652084,1.3556571102134656e-05
27,19.863837999616862,1.3501160476550458e-05
28,20.544109592712886,1.3232802069700339e-05
29,21.224367580104932,1.2772694728195737e-05
30,21.90463917320096,1.253933662877828e-05
31,22.584910766296982,1.2172698805611824e-05
32,23.26518235939301,1.2095009249927906e-05
33,23.945440346785055,1.1672979727181835e-05
34,24.62571193988108,1.1369917339006486e-05
35,25.305983532977105,1.1050156840414983e-05
36,25.986255126073125,1.085238231419307e-05
37,26.66652671916915,1.0567494695433908e-05
38,27.210741272505174,1.0363976266340093e-05
39,27.3467847065612,1.008153889755443e-05
40,27.4828417463212,1.0564414168653445e-05
41,27.618898786081196,1.0331498496444166e-05
42,27.7549558258412,9.947113024926264e-06
43,27.89099925989722,1.0492988589111056e-05
44,28.02705629965722,1.0350889831347946e-05
45,28.16311333941722,9.982069021055685e-06
46,28.299170379177223,1.0417895932521191e-05
47,28.435213813233247,1.0214060264235617e-05
48,28.571270852993244,1.0188537500896312e-05
49,28.70732789275325,1.0219629578904428e-05
50,28.843384932513246,1.0144720898982367e-05
51,28.97942836656927,1.0289484352708812e-05
52,29.115485406329267,1.0139891330588394e-05
53,29.25154244608927,1.0102422362896357e-05
54,29.387599485849268,1.0246980554989295e-05
55,29.523642919905292,9.934412472248416e-06
56,29.659699959665296,1.0048920649648735e-05
57,29.795756999425294,1.03074770317592e-05
58,29.931814039185298,9.962896115461919e-06
59,30.067857473241315,1.0076286860430012e-05
60,30.20391451300132,1.0362491180345161e-05
61,30.339971552761316,9.952293181307738e-06
62,30.47602859252132,1.0120499167301809e-05
63,30.612072026577344,1.0322602513251072e-05
64,30.74812906633734,1.0044434070396034e-05
65,30.884186106097346,1.01738914409617e-05
66,31.020243145857343,1.0300698004856867e-05
67,31.156286579913367,1.0191826747459355e-05
68,31.292343619673364,1.0336684626282673e-05
69,31.42840065943337,1.0303348332184883e-05
70,31.564457699193365,1.0191224448060172e-05
71,31.70050113324939,1.0478534670357468e-05
72,31.836558173009394,1.0366322986877251e-05
73,31.97261521276939,1.0400315525075668e-05
74,32.108672252529395,1.0505079404723809e-05
75,32.244715686585415,1.0493028686856267e-05
76,32.38077272634541,1.0496311169725143e-05
77,32.51682976610541,1.0530226096217865e-05
78,32.652886805865414,1.0678504116966316e-05
79,32.78893023992144,1.0715868763262767e-05
80,32.92498727968144,1.079590444319761e-05
81,33.06104431944144,1.0763115069898602e-05
82,33.19710135920144,1.1023816993347177e-05
83,33.33314479325746,1.0939549391466258e-05
84,33.46920183301746,1.0943475103613596e-05
85,33.60525887277746,1.1237926483492023e-05
86,33.74131591253746,1.1192879317967244e-05
87,33.87735934659349,1.1190885365933853e-05
88,34.01341638635349,1.1305997781114148e-05
89,34.14947342611349,1.1443656603787902e-05
90,34.285530465873485,1.1312497167779589e-05
91,34.421573899929506,1.1520541408185753e-05
92,34.55763093968951,1.1636828205317613e-05
93,34.69368797944951,1.1690185995873578e-05
94,34.82974501920951,1.1517443021740434e-05
95,34.96578845326554,1.1716151542792246e-05
96,35.101845493025536,1.1958086323253016e-05
97,35.23790253278553,1.192839450226991e-05
98,35.37395957254554,1.2036809051794505e-05
99,35.51000300660156,1.2164242650382074e-05
100,35.646060046361555,1.2267075130866483e-05
101,35.78211708612156,1.2142157940221824e-05
102,35.918174125881556,1.2406465884046078e-05
103,36.054217559937584,1.25071126116065e-05
104,36.19027459969758,1.2550778018638415e-05
105,36.326331639457585,1.2727069719951055e-05
106,36.46238867921758,1.277536650897814e-05
107,36.59844571897758,1.2940025276755186e-05
108,36.73448915303361,1.2813693348554352e-05
109,36.870546192793604,1.306896273844813e-05
110,37.00660323255361,1.3079284841195865e-05
111,37.142660272313606,1.3420915192988332e-05
112,37.27870370636963,1.310899508494953e-05
113,37.41476074612963,1.3434826611176037e-05
114,37.55081778588963,1.3527789581093504e-05
115,37.686874825649625,1.3795725785482523e-05
116,37.82291825970565,1.348917405641849e-05
117,37.958975299465656,1.3808486045160456e-05
118,38.095032339225654,1.3949441377706602e-05
119,38.23108937898566,1.415333001732973e-05
120,38.36713281304168,1.3865040362230433e-05
121,38.503189852801675,1.4139889549429766e-05
122,38.63924689256167,1.4330169294847025e-05
123,38.77530393232168,1.4413007358208268e-05
124,38.911347366377704,1.4337000028839088e-05
125,39.0474044061377,1.455756590378594e-05
126,39.183461445897706,1.4664249346062595e-05
127,39.3195184856577,1.4844111890179892e-05
128,39.45556191971372,1.4832742097106857e-05
129,39.59161895947372,1.503143572316117e-05
130,39.727675999233725,1.5092829635045505e-05
131,39.86373303899372,1.5236426528405375e-05
132,39.99977647304975,1.534546717743079e-05
133,40.135833512809754,1.5255789629473243e-05
134,40.27189055256975,1.552241524992054e-05
135,40.407947592329755,1.5611320970553958e-05
136,40.54399102638577,1.5762482746426915e-05
137,40.68004806614577,1.580275942482484e-05
138,40.81610510590577,1.5626879563203818e-05
139,40.952162145665774,5.056071753271002e-06
140,41.0882055797218,5.080891976864151e-06
141,41.2242626194818,5.01847594232827e-06
142,41.3603196592418,4.896696360115169e-06
143,41.4963766990018,4.866316389496039e-06
144,41.63242013305782,4.940760983883989e-06
145,41.76847717281782,4.87860621192542e-06
146,41.90453421257782,4.7239546220990155e-06
147,42.04059125233782,4.64297331564783e-06
148,42.17663468639385,4.709497078702925e-06
149,42.31269172615385,4.736866708575551e-06
150,42.44874876591385,4.50819289668661e-06
151,42.584805805673845,4.554475761567609e-06
152,42.720849239729866,4.461770117430187e-06
153,42.85690627948987,4.622993797409652e-06
154,42.99296331924987,4.474482962062915e-06
155,43.12902035900987,4.359748859435487e-06
156,43.2650637930659,4.347671553671779e-06
157,43.401120832825896,4.3475359012576056e-06
158,43.53717787258589,4.379393024577195e-06
159,43.67323491234589,4.156600871050715e-06
160,43.80927834640192,4.146755094579939e-06
161,43.945335386161915,4.13639953880807e-06
162,44.08139242592192,4.159251983644024e-06
163,44.217449465681916,4.099000418686219e-06
164,44.353492899737944,3.940166946362012e-06
165,44.48954993949794,3.908860387376182e-06
166,44.62560697925794,3.890879267129772e-06
167,44.761664019017935,3.92910020793051e-06
168,44.89770745307396,3.7592953173494367e-06
169,45.03376449283397,3.7394456127652545e-06
170,45.169821532593964,3.7150690996633357e-06
171,45.30587857235397,3.743789450661663e-06
172,45.44192200640999,3.6866226108801376e-06
173,45.577979046169986,3.4854732373693717e-06
174,45.71403608592998,3.4580318484443773e-06
175,45.85009312568999,3.392727243081027e-06
176,45.986136559746015,3.4905802363370988e-06
177,46.12219359950601,3.4708406151558603e-06
178,46.258250639266016,3.247078355427309e-06
179,46.394307679026014,3.2499264343102525e-06
180,46.53035111308204,3.216275241577619e-06
181,46.66640815284203,3.2846482975044327e-06
182,46.802465192602035,3.2707439126689776e-06
183,46.93852223236203,3.0593481114031777e-06
184,47.07456566641806,3.0859050994224784e-06
185,47.210622706178064,3.0212112369217083e-06
186,47.34667974593806,3.056102121821253e-06
187,47.482736785698066,3.1089966728137327e-06
188,47.618780219754086,2.9571698083172164e-06
189,47.75483725951408,2.900848890982589e-06
190,47.89089429927408,2.7858636982034507e-06
191,48.026951339034085,2.8658065756298897e-06
192,48.16299477309011,2.863260199428787e-06
193,48.29905181285011,2.7573432050029534e-06
194,48.43506041766452,3.2198967997293896e-06
195,48.43515728755569,3.2199032395077207e-06
196,48.57116589237011,3.056279123690747e-06
197,48.707222932130115,3.097305531020888e-06
198,48.84326636618613,3.116066865112508e-06
199,48.97932340594613,2.9743805175121557e-06
200,49.11538044570613,3.08815444693744e-06
201,49.251437485466134,2.9018512131142284e-06
202,49.38748091952216,2.8464820896124204e-06
203,49.52353795928216,2.856926488595542e-06
204,49.65959499904216,2.7882577560807596e-06
205,49.79565203880216,2.8159325409350747e-06
206,49.93169547285818,2.7206428811292846e-06
207,50.06775251261818,2.6661697001506175e-06
208,50.20380955237818,2.690982981881627e-06
209,50.33986659213818,2.612399992814604e-06
210,50.47591002619421,2.5279297275033404e-06
211,50.61196706595421,2.6991670229486425e-06
212,50.74802410571421,2.5146257184725245e-06
213,50.884081145474205,2.5026192674872096e-06
214,51.02007355950089,2.50480846409385e-06
215,51.02017559955957,2.5048134737064363e-06
216,51.15618161929023,2.593214608612752e-06
217,51.29223865905023,2.6865014280698795e-06
218,51.42829569881023,2.751824867503473e-06
219,51.56433913286626,2.5531333488172216e-06
220,51.700396172626256,2.5384205926129137e-06
221,51.83645321238625,2.4778570404889346e-06
222,51.97251025214625,2.38433372029508e-06
223,52.10855368620228,2.628064353931787e-06
224,52.24455848141958,2.5564609710514513e-06
225,52.244662970504976,2.5564660839718487e-06
226,52.38066776572228,2.532607319370968e-06
227,52.516724805482276,2.5269073549920773e-06
228,52.652768239538304,2.4180607795743327e-06
229,52.7888252792983,2.58647029489155e-06
230,52.92482939423041,2.593755235893536e-06
231,52.924935243886196,2.5937604234038604e-06
232,53.060939358818295,2.516851057756483e-06
233,53.19698279287432,2.484315353354728e-06
234,53.33303983263433,2.4455076666523816e-06
235,53.469096872394324,2.337553127740766e-06
236,53.60515391215433,2.5734815417482497e-06
237,53.74119734621035,2.4785485901134126e-06
238,53.877254385970346,2.39341510385878e-06
239,54.01331142573034,2.3496006592374334e-06
240,54.14936846549035,2.3148817470753677e-06
241,54.285411899546375,2.202541362050874e-06
242,54.55752597906638,2.3811422002431426e-06
243,61.36021469861866,9.782034091589036e-07
244,68.16288981246697,9.259418671396786e-07
245,74.96557853201926,9.067651805928353e-07
246,81.76825364586757,8.821116641589168e-07
247,88.57094236541987,8.617445516451151e-07
248,95.37363108497215,8.38420296971625e-07
249,102.17630619882047,8.1588094841514e-07
250,108.97899491837275,7.98174160482381e-07
251,115.78168363792504,7.817585682159849e-07
252,122.58435875177334,7.67448040735736e-07
253,129.38704747132562,7.545711155255208e-07
254,136.05367915111793,7.431311497261522e-07
255,136.1897361908779,7.429057373362957e-07
256,204.0805119238249,6.530337703377475e-07
257,272.10735830223587,7.164342395582689e-07
258,340.1341910749428,8.259806163014148e-07
259,408.1610238476498,9.025424383924125e-07
260,476.18787022606074,9.656230822682303e-07
261,544.2147029987677,1.0323544758109013e-06
262,612.2415493771787,1.1177491338392264e-06
263,680.2683821498856,1.2175829265111957e-06
264,748.2952149225927,1.3134601029570618e-06
265,816.3220613010035,1.405975860309828e-06
266,884.3488940737104,1.4956856535442056e-06
267,952.3757404521215,1.5829926218116752e-06
268,1020.4025732248285,1.6681987439207413e-06
269,1088.4294196032395,1.7515370282030193e-06
270,1156.4562523759464,1.8331918095093312e-06
271,1224.4830851486533,1.9133123581445065e-06
272,1292.5099315270643,1.9920218949360707e-06
273,1360.5367642997712,2.0694238121764632e-06
274,1496.590443450889,2.2206452716827894e-06
275,1632.644122602007,2.3675503972708942e-06
276,1768.697801753125,2.5105829625935464e-06
277,1904.7514672985392,2.6500975928654944e-06
278,2040.805146449657,2.786385000051526e-06
279,2176.8588256007747,2.9196882410847048e-06
280,2312.912504751893,3.050213918358665e-06
281,2448.966183903011,3.1781400084046564e-06
282,2585.0198630541286,3.3036215646714094e-06
283,2721.0735285995424,3.4267949587495794e-06
284,2857.1272077506605,3.547781192531583e-06
285,2993.180886901778,3.666688318628202e-06
286,3129.2345660528963,3.78361350648914e-06
287,3265.288245204014,3.89864461674773e-06
288,3401.3419107494283,4.011861489048311e-06
289,3537.3955899005464,4.123337065159741e-06
290,3673.4492690516645,4.2331381792613764e-06
291,3809.502948202782,4.341326355033154e-06
292,3945.5566273539002,4.4479584199916355e-06
293,4081.610306505018,4.553087023911075e-06
294,4217.663972050432,4.656761083280838e-06
295,4353.717651201549,4.75902622725132e-06
296,4489.771330352668,4.859925042470564e-06
297,4625.825009503786,4.95949742634255e-06
298,4761.878688654903,5.05778083142537e-06
299,4897.932354200318,5.154810467904632e-06
300,5033.986033351435,5.250619561272018e-06
301,5170.039712502553,5.345239446938445e-06
302,5306.0933916536715,5.438699773239528e-06
303,5442.147070804789,5.531028633615435e-06
304,5578.200749955907,5.622252684098641e-06
305,5714.254415501321,5.712397244286567e-06
306,5850.308094652439,5.8014864501222125e-06
307,5986.361773803556,5.889543265688184e-06
308,6122.415452954675,5.976589610270905e-06
309,6258.469132105793,6.0626464300648584e-06
310,6394.522797651206,6.1477337406228145e-06
311,6530.576476802325,6.231870749437822e-06
312,6666.630155953442,6.315075828082735e-06
313,6802.68383510456,6.397366615700595e-06
314,6938.737514255678,6.478760055179781e-06
315,7074.791179801093,6.559272420258406e-06
316,7210.8448589522095,6.638919405223225e-06
317,7346.898538103329,6.717716091076109e-06
318,7482.952217254446,6.795677021439178e-06
319,7619.005896405564,6.872816225166377e-06
320,7755.059575556682,6.949147244832356e-06
321,7891.113241102096,7.024683151810749e-06
322,8027.166920253213,7.099436615153658e-06
323,8163.220599404332,7.173419859192081e-06
324,8299.27427855545,7.246644724480585e-06
325,8435.327957706568,7.319122679403531e-06
326,8571.38162325198,7.390864833421957e-06
327,8707.435302403099,7.461881988581352e-06
328,8843.488981554217,7.53218459374664e-06
329,8979.542660705336,7.601782807324341e-06
330,9115.596339856453,7.670686495123176e-06
331,9251.650019007571,7.738905244852981e-06
332,9387.703684552984,7.80644836765113e-06
333,9523.757363704102,7.87332496026571e-06
334,9659.81104285522,7.93954383646442e-06
335,9795.86472200634,8.005113596266607e-06
336,9931.918401157456,8.07004261042605e-06
337,10067.97206670287,8.134339035948244e-06
338,10204.025745853987,8.198010849390505e-06
339,10340.079425005106,8.261065803151535e-06
340,10476.133104156224,8.323511473575395e-06
341,10612.186783307343,8.38535525381499e-06
342,10748.24046245846,8.446604365670145e-06
343,10884.294128003874,8.507265851632456e-06
344,11020.34780715499,8.567346626440698e-06
345,11156.40148630611,8.626853420838843e-06
346,11292.455165457228,8.685792822839629e-06
347,11428.508844608346,8.744171280227836e-06
348,11564.562510153759,8.801995088436987e-06
349,11700.616189304877,8.859270443232193e-06
350,11836.669868455994,8.916003378644653e-06
351,11972.723547607113,8.97219981803902e-06
352,12108.777226758231,9.027865562135816e-06
353,12244.83090590935,9.083006292700987e-06
354,12380.884571454762,9.137627573853945e-06
355,12516.938250605881,9.191734886268196e-06
356,12652.991929756998,9.245333581030264e-06
357,12789.045608908116,9.298428910421343e-06
358,12925.099288059235,9.351026035240164e-06
359,13061.15295360465,9.4031300042087e-06
360,13197.206632755768,9.454745807530349e-06
361,13333.260311906884,9.5058783146801e-06
362,13469.313991058003,9.556532316364138e-06
363,13605.36767020912,9.60671252129227e-06
364,16326.441198808663,1.051741216965977e-05
365,19047.514727408205,1.1271139593275074e-05
366,21768.58826961345,1.1891697606960618e-05
367,24489.661798212994,1.2397794210979368e-05
368,27210.735326812537,1.2804628646053692e-05
369,29931.808869017783,1.3124846932279535e-05
370,32652.882397617326,1.3369158060964157e-05
371,35373.95592621687,1.354675353595563e-05
372,38095.029468422115,1.3665606556243802e-05
373,40816.10299702166,1.3732694463164843e-05
374,43537.1765392269,1.3754170735599254e-05
375,46258.25006782645,1.3735502499468915e-05
376,48979.32359642599,1.3681583667694896e-05
377,51700.39713863123,1.3596829425296133e-05
378,54421.47066723078,1.3485256769113477e-05
379,57142.54419583032,1.3350549839245986e-05
380,59863.617738035566,1.3196117382469466e-05
381,62584.691266635105,1.3025137187184999e-05
382,65305.76479523465,1.284059143365134e-05
383,68026.8383374399,1.2645291613646196e-05
384,70747.91186603945,1.2441915808524447e-05
385,73468.98539463898,1.2232989067504497e-05
386,76190.05893684423,1.2020923328163227e-05
387,78911.13246544376,1.1807998373986892e-05
388,81632.20599404332,1.1596434894052284e-05
389,84353.27953624855,1.1388232305754474e-05
390,87074.35306484811,1.1185342313871732e-05
391,89795.42659344764,1.0989608780392692e-05
392,92516.5001356529,1.0802712892213956e-05
393,95237.57366425243,1.0624584754435772e-05
394,97958.64719285197,1.0454404653694362e-05
395,100679.72073505721,1.0291611385641272e-05
396,103400.79426365678,1.0135697169560079e-05
397,106121.86779225631,9.9862013285605e-06
398,108842.94133446156,9.842704846869018e-06
399,111564.0148630611,9.704825657144502e-06
400,114285.08839166064,9.57221459838081e-06
401,117006.16193386588,9.44455186450613e-06
402,119727.23546246543,9.32154392403031e-06
403,122448.30900467066,9.202920826577111e-06
404,125169.38253327021,9.088433829169332e-06
405,127890.45606186974,8.977853319451468e-06
406,130611.529604075,8.870966971371792e-06
407,133332.60313267456,8.767578116582336e-06
408,136053.6766612741,8.667504292351328e-06
409,138774.75020347934,8.570575968324403e-06
410,141495.8237320789,8.47663538790312e-06
411,144216.89726067844,8.385535544550858e-06
412,146937.97080288368,8.297139268028859e-06
413,149659.04433148322,8.211318394751013e-06
414,156461.72816658777,8.007265288999328e-06
415,163264.4120016923,7.816902109821581e-06
416,170067.0958367969,7.638794600365041e-06
417,176869.77965829574,7.471708581640291e-06
418,183672.4634934003,7.314575616263818e-06
419,190475.14732850486,7.166465577655624e-06
420,197277.83116360943,7.026564568723957e-06
421,204080.51499871397,6.894156973629914e-06
422,210883.19883381855,6.768610792524823e-06
423,217685.88266892312,6.649365541707265e-06
424,224488.56649042197,6.535922221970432e-06
425,231291.25032552652,6.427834966203112e-06
426,238093.93416063106,6.324704001698783e-06
427,244896.61799573564,6.226169741713097e-06
428,251699.30183084018,6.13190775316011e-06
429,258501.98566594475,6.041624492116526e-06
430,265304.6695010493,5.955053628336687e-06
431,272107.3533225482,5.8719529134957985e-06
432,278910.0371576527,5.792101458481734e-06
433,285712.7209927573,5.71529739035153e-06
434,292515.4048278619,5.641355800100105e-06
435,299318.08866296645,5.570106974622732e-06
436,306120.77249807096,5.501394824261996e-06
437,312923.45633317553,5.435075520997842e-06
438,319726.1401682801,5.371016296473293e-06
439,326528.82398977893,5.309094373092937e-06
440,333331.50782488356,5.249196022446207e-06
441,340134.1916599881,5.191215734368752e-06
442,346936.87549509265,5.1350554693267145e-06
443,353739.5593301972,5.0806239972962885e-06
444,360542.24316530174,5.02783630335046e-06
445,367344.9270004063,4.976613057073384e-06
446,374147.6108219052,4.926880134869398e-06
447,380950.2946570097,4.878568192772852e-06
448,387752.9784921143,4.831612279124149e-06
