,E (eV),I (erg/s/cm**2)
0,1.360543186192048,0.0007337412162676988
1,2.0408011735840956,0.0008571675744363373
2,2.7210727666801198,0.0008117098698338749
3,3.401344359776144,0.0007071510274810235
4,4.081615952872168,0.0008370541839316266
5,4.761873940264215,0.0009896014881079608
6,5.4421455333602395,0.0011468152316656045
7,6.122417126456264,0.0012838162068872705
8,6.802688719552288,0.001391263366087387
9,7.482946706944335,0.001476591599833644
10,8.16321830004036,0.0015945954723709948
11,8.843489893136384,0.0016561545105466334
12,9.523761486232408,0.0016290074605089192
13,10.204019473624456,0.0008566030256981392
14,10.884291066720479,0.000669993588048624
15,11.564562659816504,0.000527815484207487
16,12.244834252912527,0.00034575530210916093
17,12.92510584600855,0.00017952685841239022
18,13.7414208731606,1.6062504377802443e-05
19,14.421692466256623,1.5237658158354437e-05
20,15.101964059352648,1.4566774328370037e-05
21,15.782222046744696,1.388510885976681e-05
22,16.46249363984072,1.403733261992747e-05
23,17.142765232936743,1.3790750003425989e-05
24,17.823036826032766,1.3420864611546286e-05
25,18.503294813424816,1.3372702650312175e-05
26,19.18356640652084,1.3207427197102414e-05
27,19.863837999616862,1.247946919879929e-05
28,20.544109592712886,1.2918252906341103e-05
29,21.224367580104932,1.2176598356087797e-05
30,21.90463917320096,1.1921979030829031e-05
31,22.584910766296982,1.1652735746690968e-05
32,23.26518235939301,1.1610772938506555e-05
33,23.945440346785055,1.1365744359180473e-05
34,24.62571193988108,1.0980423032991695e-05
35,25.305983532977105,1.0656008025791067e-05
36,25.986255126073125,1.0379221242826233e-05
37,26.66652671916915,1.0032389544507472e-05
38,27.210741272505174,9.905889434923994e-06
39,27.3467847065612,1.0046362644978993e-05
40,27.4828417463212,9.648334442412061e-06
41,27.618898786081196,9.728150676197453e-06
42,27.7549558258412,9.808728109291157e-06
43,27.89099925989722,9.699722799120415e-06
44,28.02705629965722,9.769884208445585e-06
45,28.16311333941722,9.777236233902169e-06
46,28.299170379177223,9.562205852279823e-06
47,28.435213813233247,9.835669865784478e-06
48,28.571270852993244,9.622224139145387e-06
49,28.70732789275325,9.36525637267858e-06
50,28.843384932513246,9.849274380042753e-06
51,28.97942836656927,9.532047076824504e-06
52,29.115485406329267,9.371481596854398e-06
53,29.25154244608927,9.752967750722615e-06
54,29.387599485849268,9.42694200904919e-06
55,29.523642919905292,9.147998831082184e-06
56,29.659699959665296,9.56582537829984e-06
57,29.795756999425294,9.493593570488143e-06
58,29.931814039185298,9.263841203927361e-06
59,30.067857473241315,9.504427242810043e-06
60,30.20391451300132,9.537787970269697e-06
61,30.339971552761316,9.199724846410686e-06
62,30.47602859252132,9.56814325045005e-06
63,30.612072026577344,9.458271870866404e-06
64,30.74812906633734,9.22386542197204e-06
65,30.884186106097346,9.608413902582662e-06
66,31.020243145857343,9.374219703143997e-06
67,31.156286579913367,9.221367539615713e-06
68,31.292343619673364,9.785541062607016e-06
69,31.42840065943337,9.31976467596544e-06
70,31.564457699193365,9.204353941497208e-06
71,31.70050113324939,9.947931398362477e-06
72,31.836558173009394,9.510962340884495e-06
73,31.97261521276939,9.304052774550193e-06
74,32.108672252529395,1.000653294489811e-05
75,32.244715686585415,9.583016285190017e-06
76,32.38077272634541,9.524387109148734e-06
77,32.51682976610541,1.0227615385260569e-05
78,32.652886805865414,9.813003980947659e-06
79,32.78893023992144,9.76610463136183e-06
80,32.92498727968144,1.0317868213222329e-05
81,33.06104431944144,1.0143278663469171e-05
82,33.19710135920144,1.0017886090565667e-05
83,33.33314479325746,1.038224235367909e-05
84,33.46920183301746,1.0519548521222172e-05
85,33.60525887277746,1.0081629184827129e-05
86,33.74131591253746,1.0619115935908053e-05
87,33.87735934659349,1.0720346789585721e-05
88,34.01341638635349,1.0349208463213307e-05
89,34.14947342611349,1.0766237036881649e-05
90,34.285530465873485,1.0806504324199064e-05
91,34.421573899929506,1.0898208910528364e-05
92,34.55763093968951,1.0875231556616738e-05
93,34.69368797944951,1.113413974953935e-05
94,34.82974501920951,1.1273990055905606e-05
95,34.96578845326554,1.1091368200926543e-05
96,35.101845493025536,1.1419739421678095e-05
97,35.23790253278553,1.162640436253438e-05
98,35.37395957254554,1.1612838412590673e-05
99,35.51000300660156,1.1677933781366034e-05
100,35.646060046361555,1.193731165343797e-05
101,35.78211708612156,1.2210764825946657e-05
102,35.918174125881556,1.2085672042636505e-05
103,36.054217559937584,1.2177751699069786e-05
104,36.19027459969758,1.2533290836031905e-05
105,36.326331639457585,1.2572641913647671e-05
106,36.46238867921758,1.2563077322172138e-05
107,36.59844571897758,1.2660523779246164e-05
108,36.73448915303361,1.2981790181102648e-05
109,36.870546192793604,1.2955648159407396e-05
110,37.00660323255361,1.3092184368626785e-05
111,37.142660272313606,1.3443641010406464e-05
112,37.27870370636963,1.343448380799797e-05
113,37.41476074612963,1.3528102866360307e-05
114,37.55081778588963,1.3581934495774919e-05
115,37.686874825649625,1.3759013393404886e-05
116,37.82291825970565,1.4064117878530038e-05
117,37.958975299465656,1.4077740627830658e-05
118,38.095032339225654,1.3911079197303397e-05
119,38.23108937898566,1.4385975046771732e-05
120,38.36713281304168,1.4553033292940729e-05
121,38.503189852801675,1.447755276963579e-05
122,38.63924689256167,1.4786571714169593e-05
123,38.77530393232168,1.496879997546052e-05
124,38.911347366377704,1.5141056913303974e-05
125,39.0474044061377,1.4954590186527568e-05
126,39.183461445897706,1.5450191065513454e-05
127,39.3195184856577,1.565243368449515e-05
128,39.45556191971372,1.5724878229541808e-05
129,39.59161895947372,1.5673798808016404e-05
130,39.727675999233725,1.6179763388645695e-05
131,39.86373303899372,1.6229810551629518e-05
132,39.99977647304975,1.6435438901752844e-05
133,40.135833512809754,1.6487393287616378e-05
134,40.27189055256975,1.6893787273284794e-05
135,40.407947592329755,1.6774886591834435e-05
136,40.54399102638577,1.7085456502366656e-05
137,40.68004806614577,1.7212996954826562e-05
138,40.81610510590577,1.7096977491844978e-05
139,40.952162145665774,4.719802220008621e-06
140,41.0882055797218,4.807808741113705e-06
141,41.2242626194818,4.846169374760409e-06
142,41.3603196592418,4.6506218757886265e-06
143,41.4963766990018,4.615459650385651e-06
144,41.63242013305782,4.617623352999625e-06
145,41.76847717281782,4.684285056128457e-06
146,41.90453421257782,4.4273681111909875e-06
147,42.04059125233782,4.4511456757350554e-06
148,42.17663468639385,4.362173101588656e-06
149,42.31269172615385,4.479068036964763e-06
150,42.44874876591385,4.248808115830231e-06
151,42.584805805673845,4.3184556911858896e-06
152,42.720849239729866,4.195985170036547e-06
153,42.85690627948987,4.304555866398168e-06
154,42.99296331924987,4.150860553883301e-06
155,43.12902035900987,4.138947995132368e-06
156,43.2650637930659,4.1010035150407985e-06
157,43.401120832825896,4.064805463376144e-06
158,43.53717787258589,3.971617353253109e-06
159,43.67323491234589,3.9403728741040555e-06
160,43.80927834640192,3.898121974242568e-06
161,43.945335386161915,3.858671527977742e-06
162,44.08139242592192,3.7472380647111264e-06
163,44.217449465681916,3.7104749460047936e-06
164,44.353492899737944,3.7159572346012665e-06
165,44.48954993949794,3.6120505955081445e-06
166,44.62560697925794,3.502290099769645e-06
167,44.761664019017935,3.4165652804262925e-06
168,44.89770745307396,3.48501796776622e-06
169,45.03376449283397,3.5061563989323673e-06
170,45.169821532593964,3.3183793006220116e-06
171,45.30587857235397,3.2598036597160143e-06
172,45.44192200640999,3.1953199238914387e-06
173,45.577979046169986,3.2561483756282607e-06
174,45.71403608592998,3.1407982089981156e-06
175,45.85009312568999,2.949451626869141e-06
176,45.986136559746015,2.946147356940427e-06
177,46.12219359950601,2.9661307520342418e-06
178,46.258250639266016,3.0078553386369667e-06
179,46.394307679026014,2.875491763510227e-06
180,46.53035111308204,2.744308812432155e-06
181,46.66640815284203,2.6964254619487646e-06
182,46.802465192602035,2.7969782930084686e-06
183,46.93852223236203,2.7746387183321116e-06
184,47.07456566641806,2.5332571459756463e-06
185,47.210622706178064,2.527007559569846e-06
186,47.34667974593806,2.5111952707728614e-06
187,47.482736785698066,2.6279398027036464e-06
188,47.618780219754086,2.5233098339618373e-06
189,47.75483725951408,2.268135587069883e-06
190,47.89089429927408,2.281186052161863e-06
191,48.026951339034085,2.294393871396315e-06
192,48.16299477309011,2.308020072141737e-06
193,48.29905181285011,2.254289177555188e-06
194,48.43506041766452,2.705902367513706e-06
195,48.43515728755569,2.7059077793056105e-06
196,48.57116589237011,2.7087195299922123e-06
197,48.707222932130115,2.668858013295086e-06
198,48.84326636618613,2.6340041141558265e-06
199,48.97932340594613,2.596199614317905e-06
200,49.11538044570613,2.565482713309763e-06
201,49.251437485466134,2.519807551696235e-06
202,49.38748091952216,2.398831985689539e-06
203,49.52353795928216,2.385306112691615e-06
204,49.65959499904216,2.3718779326502444e-06
205,49.79565203880216,2.3322031626137746e-06
206,49.93169547285818,2.2742527261056955e-06
207,50.06775251261818,2.2966840109941835e-06
208,50.20380955237818,2.1697361585282346e-06
209,50.33986659213818,2.1517637676361656e-06
210,50.47591002619421,2.142671684209745e-06
211,50.61196706595421,2.0860383110840995e-06
212,50.74802410571421,2.1323718389792254e-06
213,50.884081145474205,2.0010571247621138e-06
214,51.02007355950089,2.011878152069739e-06
215,51.02017559955957,2.011882175822556e-06
216,51.15618161929023,2.2605172817981114e-06
217,51.29223865905023,2.1914734857199974e-06
218,51.42829569881023,2.1388811745860135e-06
219,51.56433913286626,2.107239304790168e-06
220,51.700396172626256,2.060219090173164e-06
221,51.83645321238625,2.0927581534160895e-06
222,51.97251025214625,2.0424247924255877e-06
223,52.10855368620228,1.9394699902383475e-06
224,52.24455848141958,2.1530457842082266e-06
225,52.244662970504976,2.153050090298494e-06
226,52.38066776572228,2.1066825962566125e-06
227,52.516724805482276,2.116145444391581e-06
228,52.652768239538304,2.091586047777482e-06
229,52.7888252792983,1.9738238871498075e-06
230,52.92482939423041,2.1954312143079504e-06
231,52.924935243886196,2.195435605170254e-06
232,53.060939358818295,2.1228457073427465e-06
233,53.19698279287432,2.078539683902602e-06
234,53.33303983263433,2.0695693845379e-06
235,53.469096872394324,1.9932284568873116e-06
236,53.60515391215433,1.882463186267416e-06
237,53.74119734621035,2.0402593718503333e-06
238,53.877254385970346,1.961728972915544e-06
239,54.01331142573034,1.9370266044887247e-06
240,54.14936846549035,1.922936146179694e-06
241,54.285411899546375,1.8026091698250186e-06
242,54.55752597906638,1.8854502121359969e-06
243,61.36021469861866,6.461612137561631e-07
244,68.16288981246697,6.055925920427287e-07
245,74.96557853201926,6.107943972211927e-07
246,81.76825364586757,6.103876831036923e-07
247,88.57094236541987,6.124290907630435e-07
248,95.37363108497215,6.021878127971241e-07
249,102.17630619882047,5.892448739953959e-07
250,108.97899491837275,5.805527171723237e-07
251,115.78168363792504,5.72240371375993e-07
252,122.58435875177334,5.653416718632916e-07
253,129.38704747132562,5.594309092199965e-07
254,136.05367915111793,5.543327453591512e-07
255,136.1897361908779,5.542333548740491e-07
256,204.0805119238249,5.130427693940006e-07
257,272.10735830223587,5.752473809127929e-07
258,340.1341910749428,6.809570901581744e-07
259,408.1610238476498,7.551917859481078e-07
260,476.18787022606074,8.133992353355174e-07
261,544.2147029987677,8.714343314628123e-07
262,612.2415493771787,9.451023823314527e-07
263,680.2683821498856,1.0321460148953622e-06
264,748.2952149225927,1.1153593718316325e-06
265,816.3220613010035,1.1953754316122654e-06
266,884.3488940737104,1.2727610451266411e-06
267,952.3757404521215,1.3479247265647158e-06
268,1020.4025732248285,1.4211693151678538e-06
269,1088.4294196032395,1.4927256427957438e-06
270,1156.4562523759464,1.5627740060433694e-06
271,1224.4830851486533,1.6314585498820703e-06
272,1292.5099315270643,1.6988968197934578e-06
273,1360.5367642997712,1.7651863318247875e-06
274,1496.590443450889,1.8946361750649048e-06
275,1632.644122602007,2.0203367458865167e-06
276,1768.697801753125,2.1426906572891374e-06
277,1904.7514672985392,2.2620156880614665e-06
278,2040.805146449657,2.378569824347159e-06
279,2176.8588256007747,2.4925671246616994e-06
280,2312.912504751893,2.6041884491568425e-06
281,2448.966183903011,2.7135888576719333e-06
282,2585.0198630541286,2.8209029223707003e-06
283,2721.0735285995424,2.9262486350438797e-06
284,2857.1272077506605,3.0297304265314704e-06
285,2993.180886901778,3.131441358897334e-06
286,3129.2345660528963,3.2314649767347705e-06
287,3265.288245204014,3.3298767126294923e-06
288,3401.3419107494283,3.4267450265971724e-06
289,3537.3955899005464,3.522132403446489e-06
290,3673.4492690516645,3.6160960405753073e-06
291,3809.502948202782,3.7086885539554973e-06
292,3945.5566273539002,3.7999585045673845e-06
293,4081.610306505018,3.889950861942439e-06
294,4217.663972050432,3.978707382706348e-06
295,4353.717651201549,4.06626699775565e-06
296,4489.771330352668,4.15266602804917e-06
297,4625.825009503786,4.237938488186763e-06
298,4761.878688654903,4.3221162950643965e-06
299,4897.932354200318,4.40522944441076e-06
300,5033.986033351435,4.487306238571108e-06
301,5170.039712502553,4.568373355159321e-06
302,5306.0933916536715,4.648456033010242e-06
303,5442.147070804789,4.727578179659873e-06
304,5578.200749955907,4.805762475856942e-06
305,5714.254415501321,4.88303045981501e-06
306,5850.308094652439,4.959402657978278e-06
307,5986.361773803556,5.034898596585366e-06
308,6122.415452954675,5.109536912011036e-06
309,6258.469132105793,5.183335404477416e-06
310,6394.522797651206,5.256311089168589e-06
311,6530.576476802325,5.3284802828377e-06
312,6666.630155953442,5.399858595125046e-06
313,6802.68383510456,5.4704610095541026e-06
314,6938.737514255678,5.540301915330374e-06
315,7074.791179801093,5.6093951302040985e-06
316,7210.8448589522095,5.677753983414339e-06
317,7346.898538103329,5.745391273630008e-06
318,7482.952217254446,5.812319347916452e-06
319,7619.005896405564,5.878550113148197e-06
320,7755.059575556682,5.944095060113929e-06
321,7891.113241102096,6.008965280312424e-06
322,8027.166920253213,6.073171524851582e-06
323,8163.220599404332,6.1367241582730375e-06
324,8299.27427855545,6.199633225864483e-06
325,8435.327957706568,6.261908455223107e-06
326,8571.38162325198,6.323559265983183e-06
327,8707.435302403099,6.384594815142663e-06
328,8843.488981554217,6.445023965191515e-06
329,8979.542660705336,6.504855326007703e-06
330,9115.596339856453,6.564097255713533e-06
331,9251.650019007571,6.622757886615364e-06
332,9387.703684552984,6.680845105389472e-06
333,9523.757363704102,6.738366619741135e-06
334,9659.81104285522,6.795329901354206e-06
335,9795.86472200634,6.851742231088837e-06
336,9931.918401157456,6.907610704353716e-06
337,10067.97206670287,6.962942225490431e-06
338,10204.025745853987,7.01774355362965e-06
339,10340.079425005106,7.0720212541534e-06
340,10476.133104156224,7.125781741347754e-06
341,10612.186783307343,7.179031273849789e-06
342,10748.24046245846,7.231775969743592e-06
343,10884.294128003874,7.284021788155917e-06
344,11020.34780715499,7.335774583259327e-06
345,11156.40148630611,7.387040051104762e-06
346,11292.455165457228,7.437823768286898e-06
347,11428.508844608346,7.488131188946089e-06
348,11564.562510153759,7.5379676463928634e-06
349,11700.616189304877,7.587338379265724e-06
350,11836.669868455994,7.636248493837741e-06
351,11972.723547607113,7.684703000816775e-06
352,12108.777226758231,7.73270680678877e-06
353,12244.83090590935,7.780264720938136e-06
354,12380.884571454762,7.827381445439569e-06
355,12516.938250605881,7.874061620834452e-06
356,12652.991929756998,7.920309768517336e-06
357,12789.045608908116,7.966130333324104e-06
358,12925.099288059235,8.011527675240464e-06
359,13061.15295360465,8.056506068225695e-06
360,13197.206632755768,8.101069729552128e-06
361,13333.260311906884,8.145222775659501e-06
362,13469.313991058003,8.188969258138748e-06
363,13605.36767020912,8.232313155313867e-06
364,16326.441198808663,9.02022033176348e-06
365,19047.514727408205,9.674592815118645e-06
366,21768.58826961345,1.021552964256655e-05
367,24489.661798212994,1.06588230785009e-05
368,27210.735326812537,1.1017303926731028e-05
369,29931.808869017783,1.1301650904034453e-05
370,32652.882397617326,1.1520911661122788e-05
371,35373.95592621687,1.1682856758119586e-05
372,38095.029468422115,1.1794230992681728e-05
373,40816.10299702166,1.186093917318693e-05
374,43537.1765392269,1.1888188656591673e-05
375,46258.25006782645,1.1880602673117527e-05
376,48979.32359642599,1.1842313340088025e-05
377,51700.39713863123,1.1777040329977655e-05
378,54421.47066723078,1.1688158444375405e-05
379,57142.54419583032,1.1578755460859973e-05
380,59863.617738035566,1.1451684351504416e-05
381,62584.691266635105,1.1309603554885172e-05
382,65305.76479523465,1.1155015592103284e-05
383,68026.8383374399,1.0990294385758766e-05
384,70747.91186603945,1.0817714097652815e-05
385,73468.98539463898,1.0639446819242507e-05
386,76190.05893684423,1.0457613112855233e-05
387,78911.13246544376,1.0274239877285932e-05
388,81632.20599404332,1.0091318236791632e-05
389,84353.27953624855,9.91074831569799e-06
390,87074.35306484811,9.734378689786943e-06
391,89795.42659344764,9.563970025675075e-06
392,92516.5001356529,9.401246942330129e-06
393,95237.57366425243,9.246178490743876e-06
394,97958.64719285197,9.098029245244186e-06
395,100679.72073505721,8.956310641067872e-06
396,103400.79426365678,8.82058062852263e-06
397,106121.86779225631,8.690438158862027e-06
398,108842.94133446156,8.565518454518392e-06
399,111564.0148630611,8.445488904410932e-06
400,114285.08839166064,8.33004554318799e-06
401,117006.16193386588,8.218909959694795e-06
402,119727.23546246543,8.11182661922314e-06
403,122448.30900467066,8.008560513039285e-06
404,125169.38253327021,7.90889509944841e-06
405,127890.45606186974,7.812630484805437e-06
406,130611.529604075,7.71958182902233e-06
407,133332.60313267456,7.629577916995518e-06
408,136053.6766612741,7.542459910493664e-06
409,138774.75020347934,7.458080220303676e-06
410,141495.8237320789,7.376301510028579e-06
411,144216.89726067844,7.296995804762355e-06
412,146937.97080288368,7.220043690487362e-06
413,149659.04433148322,7.14533358867086e-06
414,156461.72816658777,6.967698300528714e-06
415,163264.4120016923,6.801980757059935e-06
416,170067.0958367969,6.646932361113738e-06
417,176869.77965829574,6.501478693178011e-06
418,183672.4634934003,6.36468962242663e-06
419,190475.14732850486,6.235755424547243e-06
420,197277.83116360943,6.1139675581209585e-06
421,204080.51499871397,5.99870304456806e-06
422,210883.19883381855,5.889411694621835e-06
423,217685.88266892312,5.785605578117834e-06
424,224488.56649042197,5.686850293842452e-06
425,231291.25032552652,5.59275768932649e-06
426,238093.93416063106,5.502979743755685e-06
427,244896.61799573564,5.417203419269694e-06
428,251699.30183084018,5.3351462828168345e-06
429,258501.98566594475,5.256552786463402e-06
430,265304.6695010493,5.1811910813700295e-06
431,272107.3533225482,5.1088502756883655e-06
432,278910.0371576527,5.039338076547285e-06
433,285712.7209927573,4.972478743224608e-06
434,292515.4048278619,4.908111305346801e-06
435,299318.08866296645,4.846088019179229e-06
436,306120.77249807096,4.7862730011429334e-06
437,312923.45633317553,4.7285410434217754e-06
438,319726.1401682801,4.672776565403285e-06
439,326528.82398977893,4.618872681118911e-06
440,333331.50782488356,4.566730389222207e-06
441,340134.1916599881,4.516257835752734e-06
442,346936.87549509265,4.467369674008363e-06
443,353739.5593301972,4.419986483751374e-06
444,360542.24316530174,4.3740342568758835e-06
445,367344.9270004063,4.3294439314651115e-06
446,374147.6108219052,4.286150982008579e-06
447,380950.2946570097,4.244095039536806e-06
448,387752.9784921143,4.203219562412649e-06
