,E (eV),I (erg/s/cm**2)
0,1.360543186192048,0.0007361240432650323
1,2.0408011735840956,0.0008735225668692619
2,2.7210727666801198,0.0008141098831285763
3,3.401344359776144,0.0007140361397669485
4,4.081615952872168,0.0008243851283075549
5,4.761873940264215,0.0009937767370478412
6,5.4421455333602395,0.0011420602861144033
7,6.122417126456264,0.0013048849987586182
8,6.802688719552288,0.0014359052718556351
9,7.482946706944335,0.001556062004795025
10,8.16321830004036,0.001649554783235644
11,8.843489893136384,0.0017298584527555723
12,9.523761486232408,0.0017217897234456563
13,10.204019473624456,0.0008606207681304045
14,10.884291066720479,0.000749651123748802
15,11.564562659816504,0.000609537145252664
16,12.244834252912527,0.0003693906087286981
17,12.92510584600855,0.00018590972155952833
18,13.7414208731606,1.5224866112717459e-05
19,14.421692466256623,1.4400029854398204e-05
20,15.101964059352648,1.378084439941976e-05
21,15.782222046744696,1.310335879162058e-05
22,16.46249363984072,1.3162823406521818e-05
23,17.142765232936743,1.3082985230620768e-05
24,17.823036826032766,1.2736811127478572e-05
25,18.503294813424816,1.2587121722766616e-05
26,19.18356640652084,1.2418811899201326e-05
27,19.863837999616862,1.2029704070654359e-05
28,20.544109592712886,1.2324483262846825e-05
29,21.224367580104932,1.1674244644591652e-05
30,21.90463917320096,1.132346692606233e-05
31,22.584910766296982,1.1281340553524331e-05
32,23.26518235939301,1.1290061920730039e-05
33,23.945440346785055,1.0929356439936262e-05
34,24.62571193988108,1.0670028248727145e-05
35,25.305983532977105,1.0355315846932303e-05
36,25.986255126073125,1.0205511982129828e-05
37,26.66652671916915,9.743488286729597e-06
38,27.210741272505174,9.55093422678313e-06
39,27.3467847065612,9.580193331972986e-06
40,27.4828417463212,9.424857476851695e-06
41,27.618898786081196,9.280167330164184e-06
42,27.7549558258412,9.535054582766175e-06
43,27.89099925989722,9.158608196418666e-06
44,28.02705629965722,9.339978472598952e-06
45,28.16311333941722,9.272599182541884e-06
46,28.299170379177223,9.223066281875274e-06
47,28.435213813233247,9.347924683669773e-06
48,28.571270852993244,9.283603297101162e-06
49,28.70732789275325,9.125389284963494e-06
50,28.843384932513246,9.225663843949348e-06
51,28.97942836656927,9.279370098432299e-06
52,29.115485406329267,9.112038402075231e-06
53,29.25154244608927,9.19434411707493e-06
54,29.387599485849268,9.17218919755756e-06
55,29.523642919905292,8.761673626995701e-06
56,29.659699959665296,9.023933517976582e-06
57,29.795756999425294,9.023854597044301e-06
58,29.931814039185298,8.773908463690802e-06
59,30.067857473241315,9.147730667192307e-06
60,30.20391451300132,8.874056696916327e-06
61,30.339971552761316,8.719985578396131e-06
62,30.47602859252132,9.075800801308857e-06
63,30.612072026577344,8.83386601262682e-06
64,30.74812906633734,8.884765959201108e-06
65,30.884186106097346,9.038843692110084e-06
66,31.020243145857343,8.777198870341731e-06
67,31.156286579913367,8.896049111527004e-06
68,31.292343619673364,9.12886951135935e-06
69,31.42840065943337,8.77767085122096e-06
70,31.564457699193365,8.924012814673083e-06
71,31.70050113324939,9.127621214642075e-06
72,31.836558173009394,9.082751889391845e-06
73,31.97261521276939,9.013455827967394e-06
74,32.108672252529395,9.055327895868113e-06
75,32.244715686585415,9.25449082252972e-06
76,32.38077272634541,9.150554242217183e-06
77,32.51682976610541,9.103008800508124e-06
78,32.652886805865414,9.443101771060792e-06
79,32.78893023992144,9.289815181135952e-06
80,32.92498727968144,9.17031256842971e-06
81,33.06104431944144,9.691810052208146e-06
82,33.19710135920144,9.49026437800835e-06
83,33.33314479325746,9.310906651106196e-06
84,33.46920183301746,9.997186782653191e-06
85,33.60525887277746,9.826585772432881e-06
86,33.74131591253746,9.627432620447163e-06
87,33.87735934659349,1.0113033963159607e-05
88,34.01341638635349,1.0141632911524398e-05
89,34.14947342611349,9.842926608712045e-06
90,34.285530465873485,1.015326030493002e-05
91,34.421573899929506,1.056807705160119e-05
92,34.55763093968951,1.0169896103817513e-05
93,34.69368797944951,1.0351867825926712e-05
94,34.82974501920951,1.0827932588542826e-05
95,34.96578845326554,1.0618387375386241e-05
96,35.101845493025536,1.0516601522953217e-05
97,35.23790253278553,1.1298111566857338e-05
98,35.37395957254554,1.1158116453132382e-05
99,35.51000300660156,1.0845726397486795e-05
100,35.646060046361555,1.1616043150843332e-05
101,35.78211708612156,1.1520620842307578e-05
102,35.918174125881556,1.1472170873988288e-05
103,36.054217559937584,1.1715007383905204e-05
104,36.19027459969758,1.192667436193056e-05
105,36.326331639457585,1.215363319261288e-05
106,36.46238867921758,1.2066450564080675e-05
107,36.59844571897758,1.2417200833474213e-05
108,36.73448915303361,1.244426847369415e-05
109,36.870546192793604,1.2610030216047852e-05
110,37.00660323255361,1.2894891443807136e-05
111,37.142660272313606,1.296212098590703e-05
112,37.27870370636963,1.2949191053369222e-05
113,37.41476074612963,1.3265540783236567e-05
114,37.55081778588963,1.3522067305262851e-05
115,37.686874825649625,1.3496631622770744e-05
116,37.82291825970565,1.390490952500768e-05
117,37.958975299465656,1.4085977338996002e-05
118,38.095032339225654,1.406375024011936e-05
119,38.23108937898566,1.4027959050873991e-05
120,38.36713281304168,1.4510642289287613e-05
121,38.503189852801675,1.463487746025119e-05
122,38.63924689256167,1.4623310768201614e-05
123,38.77530393232168,1.50758513102996e-05
124,38.911347366377704,1.5273515075686615e-05
125,39.0474044061377,1.5313655409039453e-05
126,39.183461445897706,1.5329093591977794e-05
127,39.3195184856577,1.5824386716034585e-05
128,39.45556191971372,1.6036045016570875e-05
129,39.59161895947372,1.60535701366818e-05
130,39.727675999233725,1.6022870555019582e-05
131,39.86373303899372,1.643419196152764e-05
132,39.99977647304975,1.687256615910641e-05
133,40.135833512809754,1.6963442680754202e-05
134,40.27189055256975,1.664388242629876e-05
135,40.407947592329755,1.7330527665920024e-05
136,40.54399102638577,1.76254636529886e-05
137,40.68004806614577,1.7750787085675964e-05
138,40.81610510590577,1.7474876858176132e-05
139,40.952162145665774,4.700433767184675e-06
140,41.0882055797218,4.612302149082542e-06
141,41.2242626194818,4.530787136916421e-06
142,41.3603196592418,4.475980039423108e-06
143,41.4963766990018,4.60648904842652e-06
144,41.63242013305782,4.3877984753755535e-06
145,41.76847717281782,4.36052664645072e-06
146,41.90453421257782,4.307904131128418e-06
147,42.04059125233782,4.37860236068133e-06
148,42.17663468639385,4.0433676840396464e-06
149,42.31269172615385,4.144897833623533e-06
150,42.44874876591385,4.193480116858087e-06
151,42.584805805673845,4.203281718956102e-06
152,42.720849239729866,3.893924203540721e-06
153,42.85690627948987,4.022063667011289e-06
154,42.99296331924987,4.078932141570855e-06
155,43.12902035900987,4.003998502044443e-06
156,43.2650637930659,3.7963091888208883e-06
157,43.401120832825896,3.804139637840342e-06
158,43.53717787258589,3.895214665825511e-06
159,43.67323491234589,3.766519646425161e-06
160,43.80927834640192,3.606884940758141e-06
161,43.945335386161915,3.59266161381891e-06
162,44.08139242592192,3.6486055785151716e-06
163,44.217449465681916,3.429026692337364e-06
164,44.353492899737944,3.3827727599083823e-06
165,44.48954993949794,3.3143910056012116e-06
166,44.62560697925794,3.3625358466839315e-06
167,44.761664019017935,3.266756893476572e-06
168,44.89770745307396,3.165684748021921e-06
169,45.03376449283397,3.1540360494234483e-06
170,45.169821532593964,3.1700280513574584e-06
171,45.30587857235397,3.102390579518728e-06
172,45.44192200640999,2.8722037142627563e-06
173,45.577979046169986,2.8414812984365523e-06
174,45.71403608592998,2.827766414270057e-06
175,45.85009312568999,2.790218443643018e-06
176,45.986136559746015,2.6273404820526583e-06
177,46.12219359950601,2.5842848175414318e-06
178,46.258250639266016,2.615758026517068e-06
179,46.394307679026014,2.6337718286346284e-06
180,46.53035111308204,2.409482105688925e-06
181,46.66640815284203,2.3370783086107e-06
182,46.802465192602035,2.3610003615308405e-06
183,46.93852223236203,2.4702758736517897e-06
184,47.07456566641806,2.3723389105730394e-06
185,47.210622706178064,2.180962653872113e-06
186,47.34667974593806,2.130877840596878e-06
187,47.482736785698066,2.2280312042523538e-06
188,47.618780219754086,2.2287826506764965e-06
189,47.75483725951408,1.9238011549369674e-06
190,47.89089429927408,1.8913499840477969e-06
191,48.026951339034085,1.8991358731900358e-06
192,48.16299477309011,1.9708888394390247e-06
193,48.29905181285011,1.9447967638464182e-06
194,48.43506041766452,2.3701976955121936e-06
195,48.43515728755569,2.3702024358963458e-06
196,48.57116589237011,2.409784373571997e-06
197,48.707222932130115,2.3646397924555277e-06
198,48.84326636618613,2.4040644526706034e-06
199,48.97932340594613,2.308400634796991e-06
200,49.11538044570613,2.226894553305755e-06
201,49.251437485466134,2.177125177477527e-06
202,49.38748091952216,2.0922556567927957e-06
203,49.52353795928216,2.1028922958057777e-06
204,49.65959499904216,2.0540579339415696e-06
205,49.79565203880216,1.9888392559804035e-06
206,49.93169547285818,1.9235554832582193e-06
207,50.06775251261818,1.9176039943108932e-06
208,50.20380955237818,1.86846503080984e-06
209,50.33986659213818,1.8297635439279458e-06
210,50.47591002619421,1.7834104675853518e-06
211,50.61196706595421,1.7479116890325104e-06
212,50.74802410571421,1.755071078060333e-06
213,50.884081145474205,1.6258659791383992e-06
214,51.02007355950089,1.6522666860426893e-06
215,51.02017559955957,1.6522699905731976e-06
216,51.15618161929023,1.920083123817007e-06
217,51.29223865905023,1.902364484131474e-06
218,51.42829569881023,1.89827300753701e-06
219,51.56433913286626,1.7145306686945947e-06
220,51.700396172626256,1.7290676517116544e-06
221,51.83645321238625,1.7538323161013106e-06
222,51.97251025214625,1.7393619889330383e-06
223,52.10855368620228,1.6771818694295653e-06
224,52.24455848141958,1.7401190104785175e-06
225,52.244662970504976,1.740122490715487e-06
226,52.38066776572228,1.8014420336902964e-06
227,52.516724805482276,1.79611235013575e-06
228,52.652768239538304,1.7866072579537734e-06
229,52.7888252792983,1.7241501282241818e-06
230,52.92482939423041,1.7523657978006715e-06
231,52.924935243886196,1.7523693025321675e-06
232,53.060939358818295,1.8246251285352515e-06
233,53.19698279287432,1.7713196727999594e-06
234,53.33303983263433,1.7784918791292582e-06
235,53.469096872394324,1.7450783271585551e-06
236,53.60515391215433,1.6307421988786187e-06
237,53.74119734621035,1.7205270428309784e-06
238,53.877254385970346,1.6516130721332599e-06
239,54.01331142573034,1.6438087715665356e-06
240,54.14936846549035,1.6476589570127491e-06
241,54.285411899546375,1.5246316341495612e-06
242,54.55752597906638,1.5446897806721429e-06
243,61.36021469861866,4.6880553378602765e-07
244,68.16288981246697,4.34145326206222e-07
245,74.96557853201926,4.410051716447401e-07
246,81.76825364586757,4.413347462766167e-07
247,88.57094236541987,4.489837680301233e-07
248,95.37363108497215,4.500580298677247e-07
249,102.17630619882047,4.495023790801008e-07
250,108.97899491837275,4.47721280137666e-07
251,115.78168363792504,4.4404587109945455e-07
252,122.58435875177334,4.4087051560503724e-07
253,129.38704747132562,4.3811917377173667e-07
254,136.05367915111793,4.3595790775062765e-07
255,136.1897361908779,4.35917127045337e-07
256,204.0805119238249,4.192721846767749e-07
257,272.10735830223587,4.78633408637061e-07
258,340.1341910749428,5.786128579666936e-07
259,408.1610238476498,6.49905741342793e-07
260,476.18787022606074,7.04609394659022e-07
261,544.2147029987677,7.570024246297687e-07
262,612.2415493771787,8.225817973183235e-07
263,680.2683821498856,9.003708026587459e-07
264,748.2952149225927,9.744628041915717e-07
265,816.3220613010035,1.0455015123978484e-06
266,884.3488940737104,1.1140513313324232e-06
267,952.3757404521215,1.1805184921912513e-06
268,1020.4025732248285,1.2452027606496965e-06
269,1088.4294196032395,1.3083311045027918e-06
270,1156.4562523759464,1.3700794416813525e-06
271,1224.4830851486533,1.4305872596451127e-06
272,1292.5099315270643,1.489967370103018e-06
273,1360.5367642997712,1.5483126171753119e-06
274,1496.590443450889,1.662197651675157e-06
275,1632.644122602007,1.7727371633108806e-06
276,1768.697801753125,1.8803034373570095e-06
277,1904.7514672985392,1.9851874244882486e-06
278,2040.805146449657,2.0876234607433397e-06
279,2176.8588256007747,2.1878047462520432e-06
280,2312.912504751893,2.285893693982926e-06
281,2448.966183903011,2.382028978713697e-06
282,2585.0198630541286,2.4763305582749367e-06
283,2721.0735285995424,2.568903331306903e-06
284,2857.1272077506605,2.6598399365592484e-06
285,2993.180886901778,2.74922278106536e-06
286,3129.2345660528963,2.837125732003804e-06
287,3265.288245204014,2.9236154025549857e-06
288,3401.3419107494283,3.0087521861139216e-06
289,3537.3955899005464,3.092591153043368e-06
290,3673.4492690516645,3.1751826767187887e-06
291,3809.502948202782,3.2565730651140084e-06
292,3945.5566273539002,3.336805034250554e-06
293,4081.610306505018,3.415918119084508e-06
294,4217.663972050432,3.4939490155669087e-06
295,4353.717651201549,3.5709319216494532e-06
296,4489.771330352668,3.646898733239077e-06
297,4625.825009503786,3.721879310372932e-06
298,4761.878688654903,3.7959016641230972e-06
299,4897.932354200318,3.868992114473385e-06
300,5033.986033351435,3.941175486660559e-06
301,5170.039712502553,4.012475177811906e-06
302,5306.0933916536715,4.082913320044915e-06
303,5442.147070804789,4.1525108709754435e-06
304,5578.200749955907,4.221287713044202e-06
305,5714.254415501321,4.289262721131414e-06
306,5850.308094652439,4.356453884540585e-06
307,5986.361773803556,4.422878308755136e-06
308,6122.415452954675,4.488552321852422e-06
309,6258.469132105793,4.553491516379009e-06
310,6394.522797651206,4.617710792760634e-06
311,6530.576476802325,4.681224442447247e-06
312,6666.630155953442,4.744046132680632e-06
313,6802.68383510456,4.806188982725635e-06
314,6938.737514255678,4.867665588357407e-06
315,7074.791179801093,4.928488049599187e-06
316,7210.8448589522095,4.9886680288679105e-06
317,7346.898538103329,5.048216731927705e-06
318,7482.952217254446,5.107144962399787e-06
319,7619.005896405564,5.165463139649601e-06
320,7755.059575556682,5.223181319980134e-06
321,7891.113241102096,5.280309206540724e-06
322,8027.166920253213,5.336856204524358e-06
323,8163.220599404332,5.3928313817896385e-06
324,8299.27427855545,5.448243526778138e-06
325,8435.327957706568,5.503101147313695e-06
326,8571.38162325198,5.557412480266223e-06
327,8707.435302403099,5.611185537749474e-06
328,8843.488981554217,5.6644280662822105e-06
329,8979.542660705336,5.717147595055912e-06
330,9115.596339856453,5.769351436841602e-06
331,9251.650019007571,5.8210466975346575e-06
332,9387.703684552984,5.8722402745213925e-06
333,9523.757363704102,5.922938905992701e-06
334,9659.81104285522,5.973149122032574e-06
335,9795.86472200634,6.0228772884251235e-06
336,9931.918401157456,6.072129608673391e-06
337,10067.97206670287,6.120912114812024e-06
338,10204.025745853987,6.1692307160526424e-06
339,10340.079425005106,6.217091149106695e-06
340,10476.133104156224,6.264499019877711e-06
341,10612.186783307343,6.311459798043216e-06
342,10748.24046245846,6.357978828844596e-06
343,10884.294128003874,6.404061319786199e-06
344,11020.34780715499,6.449712385180735e-06
345,11156.40148630611,6.49493700232931e-06
346,11292.455165457228,6.53974004254077e-06
347,11428.508844608346,6.584126272979128e-06
348,11564.562510153759,6.628100347496287e-06
349,11700.616189304877,6.671666846266175e-06
350,11836.669868455994,6.714830230560393e-06
351,11972.723547607113,6.757594873437589e-06
352,12108.777226758231,6.7999650630218044e-06
353,12244.83090590935,6.841944995992384e-06
354,12380.884571454762,6.883538784780813e-06
355,12516.938250605881,6.92475047702314e-06
356,12652.991929756998,6.965584022282309e-06
357,12789.045608908116,7.006043303227067e-06
358,12925.099288059235,7.0461321283306036e-06
359,13061.15295360465,7.085854225931043e-06
360,13197.206632755768,7.1252132797345355e-06
361,13333.260311906884,7.16421288516784e-06
362,13469.313991058003,7.2028565777002595e-06
363,13605.36767020912,7.241147832012386e-06
364,16326.441198808663,7.937824801911557e-06
365,19047.514727408205,8.517527251717045e-06
366,21768.58826961345,8.997790880776717e-06
367,24489.661798212994,9.392391202710958e-06
368,27210.735326812537,9.712520386230836e-06
369,29931.808869017783,9.96749470612898e-06
370,32652.882397617326,1.0165209549974822e-05
371,35373.95592621687,1.0312448245681148e-05
372,38095.029468422115,1.041510094542369e-05
373,40816.10299702166,1.0478325929645312e-05
374,43537.1765392269,1.0506672828481043e-05
375,46258.25006782645,1.0504180056617961e-05
376,48979.32359642599,1.0474454625073363e-05
377,51700.39713863123,1.0420739589716073e-05
378,54421.47066723078,1.0345972193836248e-05
379,57142.54419583032,1.0252835297540616e-05
380,59863.617738035566,1.0143802043125583e-05
381,62584.691266635105,1.0021176340826569e-05
382,65305.76479523465,9.887128057802791e-06
383,68026.8383374399,9.743716338436708e-06
384,70747.91186603945,9.592922046636703e-06
385,73468.98539463898,9.43665524310664e-06
386,76190.05893684423,9.276791200919582e-06
387,78911.13246544376,9.115144199286655e-06
388,81632.20599404332,8.953503653667021e-06
389,84353.27953624855,8.793614846348268e-06
390,87074.35306484811,8.63724652599229e-06
391,89795.42659344764,8.486022175639354e-06
392,92516.5001356529,8.341600307369374e-06
393,95237.57366425243,8.203985658895082e-06
394,97958.64719285197,8.072511463529237e-06
395,100679.72073505721,7.946744145895044e-06
396,103400.79426365678,7.82629140413788e-06
397,106121.86779225631,7.710797327602075e-06
398,108842.94133446156,7.5999381938470124e-06
399,111564.0148630611,7.493418827764427e-06
400,114285.08839166064,7.39096947193787e-06
401,117006.16193386588,7.292343051767188e-06
402,119727.23546246543,7.197312790534236e-06
403,122448.30900467066,7.10567013029914e-06
404,125169.38253327021,7.017222901305174e-06
405,127890.45606186974,6.931793706172224e-06
406,130611.529604075,6.849218509732721e-06
407,133332.60313267456,6.769345366418741e-06
408,136053.6766612741,6.692033314292111e-06
409,138774.75020347934,6.617151375684414e-06
410,141495.8237320789,6.544577673058732e-06
411,144216.89726067844,6.474198631985647e-06
412,146937.97080288368,6.405908278288573e-06
413,149659.04433148322,6.339607592685116e-06
414,156461.72816658777,6.181967120263821e-06
415,163264.4120016923,6.034903010680896e-06
416,170067.0958367969,5.897307199813538e-06
417,176869.77965829574,5.768226194367791e-06
418,183672.4634934003,5.646834547785947e-06
419,190475.14732850486,5.532413673040878e-06
420,197277.83116360943,5.424334773769954e-06
421,204080.51499871397,5.3220449915269446e-06
422,210883.19883381855,5.225056058859115e-06
423,217685.88266892312,5.132934963284016e-06
424,224488.56649042197,5.0452961972982524e-06
425,231291.25032552652,4.961795296510226e-06
426,238093.93416063106,4.882123410067812e-06
427,244896.61799573564,4.80600273276465e-06
428,251699.30183084018,4.733182620842472e-06
429,258501.98566594475,4.663436289872287e-06
430,265304.6695010493,4.596557984209169e-06
431,272107.3533225482,4.532360551094028e-06
432,278910.0371576527,4.470673340568359e-06
433,285712.7209927573,4.4113403912929075e-06
434,292515.4048278619,4.35421885238033e-06
435,299318.08866296645,4.2991776073688685e-06
436,306120.77249807096,4.246096068640655e-06
437,312923.45633317553,4.194863121316114e-06
438,319726.1401682801,4.145376191872721e-06
439,326528.82398977893,4.0975404273102906e-06
440,333331.50782488356,4.051267967667015e-06
441,340134.1916599881,4.006477299396785e-06
442,346936.87549509265,3.963092680726829e-06
443,353739.5593301972,3.921043631833168e-06
444,360542.24316530174,3.88026447381202e-06
445,367344.9270004063,3.840693918838381e-06
446,374147.6108219052,3.80227470293317e-06
447,380950.2946570097,3.7649532541654077e-06
448,387752.9784921143,3.7286793934738684e-06
