,E (eV),I (erg/s/cm**2)
0,1.360543186192048,0.0007237630380207092
1,2.0408011735840956,0.0008558335201897712
2,2.7210727666801198,0.0007975690591265316
3,3.401344359776144,0.0007061799625316716
4,4.081615952872168,0.0008362628400455871
5,4.761873940264215,0.0009799610401392666
6,5.4421455333602395,0.001139085678737912
7,6.122417126456264,0.0012750105484864835
8,6.802688719552288,0.0014004250159017778
9,7.482946706944335,0.0014837152327189657
10,8.16321830004036,0.0015755290170838257
11,8.843489893136384,0.0016452057872772036
12,9.523761486232408,0.0016135970699421656
13,10.204019473624456,0.0008401416120856734
14,10.884291066720479,0.0006933294815775406
15,11.564562659816504,0.0005135306922141145
16,12.244834252912527,0.0003572859839286967
17,12.92510584600855,0.00017643776765716008
18,13.7414208731606,1.6172506454520405e-05
19,14.421692466256623,1.540302342100017e-05
20,15.101964059352648,1.482171874500237e-05
21,15.782222046744696,1.4110491214660775e-05
22,16.46249363984072,1.4134412140452138e-05
23,17.142765232936743,1.3899610072847606e-05
24,17.823036826032766,1.3604701458401717e-05
25,18.503294813424816,1.3381175497748118e-05
26,19.18356640652084,1.3376882872442692e-05
27,19.863837999616862,1.2656844841443859e-05
28,20.544109592712886,1.2975282380802665e-05
29,21.224367580104932,1.2353105333434273e-05
30,21.90463917320096,1.2094119818711676e-05
31,22.584910766296982,1.171255109338147e-05
32,23.26518235939301,1.1756078025409129e-05
33,23.945440346785055,1.1484462488724537e-05
34,24.62571193988108,1.1035904357418125e-05
35,25.305983532977105,1.0699254153812788e-05
36,25.986255126073125,1.0470788340894732e-05
37,26.66652671916915,1.0060318060228064e-05
38,27.210741272505174,9.88608383436694e-06
39,27.3467847065612,1.0082541884118282e-05
40,27.4828417463212,9.845760115419344e-06
41,27.618898786081196,9.852736839962277e-06
42,27.7549558258412,9.99437312575401e-06
43,27.89099925989722,9.729879204479185e-06
44,28.02705629965722,9.902443771217638e-06
45,28.16311333941722,9.702108405722988e-06
46,28.299170379177223,9.628299157433075e-06
47,28.435213813233247,9.966091953234939e-06
48,28.571270852993244,9.666430333316433e-06
49,28.70732789275325,9.521161318316834e-06
50,28.843384932513246,9.89921704908546e-06
51,28.97942836656927,9.621210426921091e-06
52,29.115485406329267,9.40710096094027e-06
53,29.25154244608927,9.78145119136623e-06
54,29.387599485849268,9.661832337598929e-06
55,29.523642919905292,9.320584189665366e-06
56,29.659699959665296,9.587811273086697e-06
57,29.795756999425294,9.645967968761343e-06
58,29.931814039185298,9.419302563851715e-06
59,30.067857473241315,9.689643052189881e-06
60,30.20391451300132,9.670523205912332e-06
61,30.339971552761316,9.35535730938827e-06
62,30.47602859252132,9.638734229925163e-06
63,30.612072026577344,9.535629357273262e-06
64,30.74812906633734,9.507819853883471e-06
65,30.884186106097346,9.758858426137301e-06
66,31.020243145857343,9.499662631479912e-06
67,31.156286579913367,9.484836356021967e-06
68,31.292343619673364,9.879712368131692e-06
69,31.42840065943337,9.489515171248861e-06
70,31.564457699193365,9.4977676040366e-06
71,31.70050113324939,9.957681116759906e-06
72,31.836558173009394,9.579813856478157e-06
73,31.97261521276939,9.545636227989632e-06
74,32.108672252529395,1.0126056478551132e-05
75,32.244715686585415,9.66726059262805e-06
76,32.38077272634541,9.671492003112133e-06
77,32.51682976610541,1.0249777485189812e-05
78,32.652886805865414,9.83694965118629e-06
79,32.78893023992144,9.943189950786485e-06
80,32.92498727968144,1.035550126776126e-05
81,33.06104431944144,1.0174406804757231e-05
82,33.19710135920144,1.0348713686980483e-05
83,33.33314479325746,1.0452370839095784e-05
84,33.46920183301746,1.062807246626539e-05
85,33.60525887277746,1.0356687741709623e-05
86,33.74131591253746,1.0670076142789883e-05
87,33.87735934659349,1.0877297687164003e-05
88,34.01341638635349,1.0537853031396155e-05
89,34.14947342611349,1.087986947792651e-05
90,34.285530465873485,1.0955073880862219e-05
91,34.421573899929506,1.1001132368308572e-05
92,34.55763093968951,1.1039900175961221e-05
93,34.69368797944951,1.1256650179652834e-05
94,34.82974501920951,1.1456282763110432e-05
95,34.96578845326554,1.1282166964150518e-05
96,35.101845493025536,1.152704544057673e-05
97,35.23790253278553,1.1640027085928232e-05
98,35.37395957254554,1.1725418221942768e-05
99,35.51000300660156,1.1734467287156626e-05
100,35.646060046361555,1.1934109714786374e-05
101,35.78211708612156,1.2261561837136019e-05
102,35.918174125881556,1.2135661454313842e-05
103,36.054217559937584,1.2200764888908886e-05
104,36.19027459969758,1.260526229664944e-05
105,36.326331639457585,1.2631591685542141e-05
106,36.46238867921758,1.2613871288100141e-05
107,36.59844571897758,1.2702434591327099e-05
108,36.73448915303361,1.3001528075771438e-05
109,36.870546192793604,1.3007596342110981e-05
110,37.00660323255361,1.3061273637990265e-05
111,37.142660272313606,1.3333035331424131e-05
112,37.27870370636963,1.3479122195091559e-05
113,37.41476074612963,1.3528046373549174e-05
114,37.55081778588963,1.3498177372494966e-05
115,37.686874825649625,1.3815038587609071e-05
116,37.82291825970565,1.4055005771737169e-05
117,37.958975299465656,1.3995067613263262e-05
118,38.095032339225654,1.4250490665648617e-05
119,38.23108937898566,1.4448730740916592e-05
120,38.36713281304168,1.4497455247226684e-05
121,38.503189852801675,1.4334334926281225e-05
122,38.63924689256167,1.4802748286239808e-05
123,38.77530393232168,1.4941512811964259e-05
124,38.911347366377704,1.503858823311616e-05
125,39.0474044061377,1.4917539881421833e-05
126,39.183461445897706,1.543275906316537e-05
127,39.3195184856577,1.5528465473254804e-05
128,39.45556191971372,1.5713903389549663e-05
129,39.59161895947372,1.559562452728124e-05
130,39.727675999233725,1.609098219345297e-05
131,39.86373303899372,1.6014834202959944e-05
132,39.99977647304975,1.6416992346875598e-05
133,40.135833512809754,1.6324233932530968e-05
134,40.27189055256975,1.6764505531032594e-05
135,40.407947592329755,1.6634685384063896e-05
136,40.54399102638577,1.7019309993931882e-05
137,40.68004806614577,1.7032278160802387e-05
138,40.81610510590577,1.690304099039319e-05
139,40.952162145665774,4.77339586991373e-06
140,41.0882055797218,4.885683128190955e-06
141,41.2242626194818,4.841936491203979e-06
142,41.3603196592418,4.709222837019746e-06
143,41.4963766990018,4.653382196147508e-06
144,41.63242013305782,4.706381977475291e-06
145,41.76847717281782,4.68456349545971e-06
146,41.90453421257782,4.493617802885142e-06
147,42.04059125233782,4.473952264051734e-06
148,42.17663468639385,4.448045708465805e-06
149,42.31269172615385,4.4129355134892675e-06
150,42.44874876591385,4.327779468922274e-06
151,42.584805805673845,4.371561561801269e-06
152,42.720849239729866,4.267852187500187e-06
153,42.85690627948987,4.255637802633518e-06
154,42.99296331924987,4.196617011018585e-06
155,43.12902035900987,4.193228907833099e-06
156,43.2650637930659,4.1601589624804434e-06
157,43.401120832825896,4.021747445377876e-06
158,43.53717787258589,3.998073849234432e-06
159,43.67323491234589,4.002733559232652e-06
160,43.80927834640192,3.958930551226207e-06
161,43.945335386161915,3.903698098553869e-06
162,44.08139242592192,3.77188749723171e-06
163,44.217449465681916,3.7706248872737934e-06
164,44.353492899737944,3.78279558803661e-06
165,44.48954993949794,3.652559127684199e-06
166,44.62560697925794,3.528654641960749e-06
167,44.761664019017935,3.4723981256006627e-06
168,44.89770745307396,3.5730242087338796e-06
169,45.03376449283397,3.5499897748194843e-06
170,45.169821532593964,3.3608804046269216e-06
171,45.30587857235397,3.3240244384915745e-06
172,45.44192200640999,3.2663688668158525e-06
173,45.577979046169986,3.3219896920586426e-06
174,45.71403608592998,3.153928235053592e-06
175,45.85009312568999,3.0199511593868855e-06
176,45.986136559746015,3.0050796303651045e-06
177,46.12219359950601,3.0633307099604776e-06
178,46.258250639266016,3.0638656253041527e-06
179,46.394307679026014,2.8055856661607763e-06
180,46.53035111308204,2.8187237346367343e-06
181,46.66640815284203,2.778392517249919e-06
182,46.802465192602035,2.873546158318189e-06
183,46.93852223236203,2.819047043279284e-06
184,47.07456566641806,2.6032729264234665e-06
185,47.210622706178064,2.6031796862634168e-06
186,47.34667974593806,2.5924008065812557e-06
187,47.482736785698066,2.6668659299876004e-06
188,47.618780219754086,2.5726545237420142e-06
189,47.75483725951408,2.3500510992404544e-06
190,47.89089429927408,2.3616397765076966e-06
191,48.026951339034085,2.359934724125501e-06
192,48.16299477309011,2.3761849924308886e-06
193,48.29905181285011,2.3336210965456326e-06
194,48.43506041766452,2.7628225544382073e-06
195,48.43515728755569,2.7628280800702155e-06
196,48.57116589237011,2.7678088767506546e-06
197,48.707222932130115,2.7102745054985783e-06
198,48.84326636618613,2.736530716339167e-06
199,48.97932340594613,2.66371731927664e-06
200,49.11538044570613,2.6226533769742164e-06
201,49.251437485466134,2.568805737990433e-06
202,49.38748091952216,2.5254415446267204e-06
203,49.52353795928216,2.4514388368897334e-06
204,49.65959499904216,2.4474412738977035e-06
205,49.79565203880216,2.39564418102714e-06
206,49.93169547285818,2.3279124836330824e-06
207,50.06775251261818,2.342163612441586e-06
208,50.20380955237818,2.236474777427883e-06
209,50.33986659213818,2.230199073168152e-06
210,50.47591002619421,2.210899798820566e-06
211,50.61196706595421,2.141463032004907e-06
212,50.74802410571421,2.1839929454365713e-06
213,50.884081145474205,2.0692578086320133e-06
214,51.02007355950089,2.0890244550395765e-06
215,51.02017559955957,2.0890286330848657e-06
216,51.15618161929023,2.3234715447058647e-06
217,51.29223865905023,2.2369309682485294e-06
218,51.42829569881023,2.1863716609657544e-06
219,51.56433913286626,2.1699281640395296e-06
220,51.700396172626256,2.130639498551439e-06
221,51.83645321238625,2.1577097689291252e-06
222,51.97251025214625,2.0916564662530465e-06
223,52.10855368620228,1.990488825281673e-06
224,52.24455848141958,2.2126109565653133e-06
225,52.244662970504976,2.2126153817858894e-06
226,52.38066776572228,2.1648492713002818e-06
227,52.516724805482276,2.176958679773696e-06
228,52.652768239538304,2.138559693716266e-06
229,52.7888252792983,2.0222947950796143e-06
230,52.92482939423041,2.2540634720000426e-06
231,52.924935243886196,2.2540679801268585e-06
232,53.060939358818295,2.1800319427843257e-06
233,53.19698279287432,2.1376034033953414e-06
234,53.33303983263433,2.125694308218341e-06
235,53.469096872394324,2.0420550856969166e-06
236,53.60515391215433,1.9321932973066247e-06
237,53.74119734621035,2.1028075160603674e-06
238,53.877254385970346,2.0228822397859816e-06
239,54.01331142573034,1.995043051962399e-06
240,54.14936846549035,1.9777552526504788e-06
241,54.285411899546375,1.8581568101316976e-06
242,54.55752597906638,1.9536057792779887e-06
243,61.36021469861866,6.858275527227747e-07
244,68.16288981246697,6.442007281658112e-07
245,74.96557853201926,6.490080706555097e-07
246,81.76825364586757,6.481370852035445e-07
247,88.57094236541987,6.451773788259303e-07
248,95.37363108497215,6.325791996470133e-07
249,102.17630619882047,6.184885476696723e-07
250,108.97899491837275,6.085446958849239e-07
251,115.78168363792504,5.99429653506748e-07
252,122.58435875177334,5.916889164061153e-07
253,129.38704747132562,5.849158358380987e-07
254,136.05367915111793,5.791813891915927e-07
255,136.1897361908779,5.790681495867342e-07
256,204.0805119238249,5.321049770570938e-07
257,272.10735830223587,5.946841270300482e-07
258,340.1341910749428,7.012558880980886e-07
259,408.1610238476498,7.759484452716304e-07
260,476.18787022606074,8.348257645819916e-07
261,544.2147029987677,8.940194050194519e-07
262,612.2415493771787,9.693143227643763e-07
263,680.2683821498856,1.0581721859036254e-06
264,748.2952149225927,1.1431773455076529e-06
265,816.3220613010035,1.224959126946703e-06
266,884.3488940737104,1.3040839121683398e-06
267,952.3757404521215,1.3809601290769477e-06
268,1020.4025732248285,1.4558909082304814e-06
269,1088.4294196032395,1.5291076519673987e-06
270,1156.4562523759464,1.6007913979488914e-06
271,1224.4830851486533,1.6710871310184075e-06
272,1292.5099315270643,1.7401132765937442e-06
273,1360.5367642997712,1.807968236123965e-06
274,1496.590443450889,1.940485136857049e-06
275,1632.644122602007,2.0691730503075923e-06
276,1768.697801753125,2.194440501932414e-06
277,1904.7514672985392,2.316610524408425e-06
278,2040.805146449657,2.4359457491785767e-06
279,2176.8588256007747,2.5526643371448154e-06
280,2312.912504751893,2.666950782061855e-06
281,2448.966183903011,2.778963373903571e-06
282,2585.0198630541286,2.8888395681258294e-06
283,2721.0735285995424,2.9966999405095765e-06
284,2857.1272077506605,3.1026512504457036e-06
285,2993.180886901778,3.206788666791414e-06
286,3129.2345660528963,3.309197642904663e-06
287,3265.288245204014,3.4099553566753256e-06
288,3401.3419107494283,3.5091318636922674e-06
289,3537.3955899005464,3.6067911134079334e-06
290,3673.4492690516645,3.7029916535812735e-06
291,3809.502948202782,3.7977873479132085e-06
292,3945.5566273539002,3.891227914447022e-06
293,4081.610306505018,3.983359398909583e-06
294,4217.663972050432,4.0742245575776484e-06
295,4353.717651201549,4.1638632595347165e-06
296,4489.771330352668,4.252312702237089e-06
297,4625.825009503786,4.339607723059083e-06
298,4761.878688654903,4.425781011563031e-06
299,4897.932354200318,4.510863293807852e-06
300,5033.986033351435,4.594883557822262e-06
301,5170.039712502553,4.677869133493683e-06
302,5306.0933916536715,4.759845874957817e-06
303,5442.147070804789,4.8408382739700676e-06
304,5578.200749955907,4.920869566034733e-06
305,5714.254415501321,4.999961816820278e-06
306,5850.308094652439,5.078136059702981e-06
307,5986.361773803556,5.155412296135391e-06
308,6122.415452954675,5.2318096213856445e-06
309,6258.469132105793,5.307346277566518e-06
310,6394.522797651206,5.382039692629061e-06
311,6530.576476802325,5.455906592252379e-06
312,6666.630155953442,5.528962967725643e-06
313,6802.68383510456,5.601224172416753e-06
314,6938.737514255678,5.6727049506859996e-06
315,7074.791179801093,5.743419465283229e-06
316,7210.8448589522095,5.813381371825734e-06
317,7346.898538103329,5.8826037888939145e-06
318,7482.952217254446,5.951099368336751e-06
319,7619.005896405564,6.018880312277571e-06
320,7755.059575556682,6.085958397887411e-06
321,7891.113241102096,6.152344991837763e-06
322,8027.166920253213,6.218051109108915e-06
323,8163.220599404332,6.283087377148053e-06
324,8299.27427855545,6.347464090631432e-06
325,8435.327957706568,6.41119121720436e-06
326,8571.38162325198,6.474278410360236e-06
327,8707.435302403099,6.536735060445703e-06
328,8843.488981554217,6.598570245610342e-06
329,8979.542660705336,6.6597927910791205e-06
330,9115.596339856453,6.720411268773362e-06
331,9251.650019007571,6.780434008469966e-06
332,9387.703684552984,6.839869099087978e-06
333,9523.757363704102,6.898724436769803e-06
334,9659.81104285522,6.957007682091414e-06
335,9795.86472200634,7.014726298534899e-06
336,9931.918401157456,7.071887559555542e-06
337,10067.97206670287,7.128498541195697e-06
338,10204.025745853987,7.18456617393539e-06
339,10340.079425005106,7.240097184798315e-06
340,10476.133104156224,7.295098150910717e-06
341,10612.186783307343,7.349575491650541e-06
342,10748.24046245846,7.403535470528932e-06
343,10884.294128003874,7.456984203392688e-06
344,11020.34780715499,7.509927690058848e-06
345,11156.40148630611,7.562371770029476e-06
346,11292.455165457228,7.614322156880192e-06
347,11428.508844608346,7.665784449196698e-06
348,11564.562510153759,7.716764105942573e-06
349,11700.616189304877,7.767266501329074e-06
350,11836.669868455994,7.817296874038919e-06
351,11972.723547607113,7.866860355843445e-06
352,12108.777226758231,7.915961980788215e-06
353,12244.83090590935,7.964606675853185e-06
354,12380.884571454762,8.012799265655976e-06
355,12516.938250605881,8.060544504279483e-06
356,12652.991929756998,8.107847029246913e-06
357,12789.045608908116,8.154711399652047e-06
358,12925.099288059235,8.201142083896028e-06
359,13061.15295360465,8.247143462176325e-06
360,13197.206632755768,8.29271985843335e-06
361,13333.260311906884,8.337875497135407e-06
362,13469.313991058003,8.382614528637257e-06
363,13605.36767020912,8.426941032001902e-06
364,16326.441198808663,9.23255389099403e-06
365,19047.514727408205,9.901353418136682e-06
366,21768.58826961345,1.0453950366973714e-05
367,24489.661798212994,1.0906539698694242e-05
368,27210.735326812537,1.127227938746736e-05
369,29931.808869017783,1.1562120076986352e-05
370,32652.882397617326,1.1785339259755034e-05
371,35373.95592621687,1.1949904270333946e-05
372,38095.029468422115,1.2062730154422933e-05
373,40816.10299702166,1.2129870385398719e-05
374,43537.1765392269,1.2156663355328477e-05
375,46258.25006782645,1.214784891475023e-05
376,48979.32359642599,1.2107664092454132e-05
377,51700.39713863123,1.2039924195735457e-05
378,54421.47066723078,1.1948091629962384e-05
379,57142.54419583032,1.1835336902436697e-05
380,59863.617738035566,1.1704587597013132e-05
381,62584.691266635105,1.1558574216226153e-05
382,65305.76479523465,1.1399867124012788e-05
383,68026.8383374399,1.1230901067480061e-05
384,70747.91186603945,1.1054001132742866e-05
385,73468.98539463898,1.0871409002462765e-05
386,76190.05893684423,1.068527221842505e-05
387,78911.13246544376,1.0497666335865253e-05
388,81632.20599404332,1.031060413456576e-05
389,84353.27953624855,1.0126037044047316e-05
390,87074.35306484811,9.945808606974932e-06
391,89795.42659344764,9.771704987271497e-06
392,92516.5001356529,9.605457251359836e-06
393,95237.57366425243,9.44702656781762e-06
394,97958.64719285197,9.295665105443419e-06
395,100679.72073505721,9.150873705903638e-06
396,103400.79426365678,9.012200734684742e-06
397,106121.86779225631,8.879236449423332e-06
398,108842.94133446156,8.751608161369144e-06
399,111564.0148630611,8.628976053886934e-06
400,114285.08839166064,8.511029565191158e-06
401,117006.16193386588,8.397484253783971e-06
402,119727.23546246543,8.288079040853673e-06
403,122448.30900467066,8.18257382641925e-06
404,125169.38253327021,8.080747368509018e-06
405,127890.45606186974,7.982395443686035e-06
406,130611.529604075,7.887329204691989e-06
407,133332.60313267456,7.7953737229143e-06
408,136053.6766612741,7.706366716858823e-06
409,138774.75020347934,7.620157397975158e-06
410,141495.8237320789,7.536605451115553e-06
411,144216.89726067844,7.455580129123807e-06
412,146937.97080288368,7.376959424492649e-06
413,149659.04433148322,7.3006293453960456e-06
414,156461.72816658777,7.119142280532737e-06
415,163264.4120016923,6.94983135607337e-06
416,170067.0958367969,6.791420905098159e-06
417,176869.77965829574,6.642813214071152e-06
418,183672.4634934003,6.503057984306902e-06
419,190475.14732850486,6.371327936524225e-06
420,197277.83116360943,6.246899168676741e-06
421,204080.51499871397,6.129135194290881e-06
422,210883.19883381855,6.017473894925046e-06
423,217685.88266892312,5.911416761547479e-06
424,224488.56649042197,5.810519975021187e-06
425,231291.25032552652,5.714386966670507e-06
426,238093.93416063106,5.622662171204973e-06
427,244896.61799573564,5.535025761135151e-06
428,251699.30183084018,5.451189181487066e-06
429,258501.98566594475,5.370891344186037e-06
430,265304.6695010493,5.293895371802185e-06
431,272107.3533225482,5.219985802148269e-06
432,278910.0371576527,5.148966171747169e-06
433,285712.7209927573,5.080656928359543e-06
434,292515.4048278619,5.014893613988814e-06
435,299318.08866296645,4.951525279478951e-06
436,306120.77249807096,4.890413095436619e-06
437,312923.45633317553,4.831429140888289e-06
438,319726.1401682801,4.774455326413245e-06
439,326528.82398977893,4.71938245139302e-06
440,333331.50782488356,4.666109364281445e-06
441,340134.1916599881,4.614542223554224e-06
442,346936.87549509265,4.564593829615763e-06
443,353739.5593301972,4.5161830411116456e-06
444,360542.24316530174,4.469234243093975e-06
445,367344.9270004063,4.423676880296909e-06
446,374147.6108219052,4.379445023025881e-06
447,380950.2946570097,4.336476998479307e-06
448,387752.9784921143,4.294715035114028e-06
