,E (eV),I (erg/s/cm**2)
0,1.360543186192048,0.0006829163289306504
1,2.0408011735840956,0.0007845412055532147
2,2.7210727666801198,0.0007472939681463182
3,3.401344359776144,0.0006664237912467454
4,4.081615952872168,0.0007976707829412453
5,4.761873940264215,0.0009337178187004935
6,5.4421455333602395,0.0010630665865839196
7,6.122417126456264,0.0011777338799527101
8,6.802688719552288,0.0012818565474101555
9,7.482946706944335,0.001343407842378589
10,8.16321830004036,0.001415973118695443
11,8.843489893136384,0.0014095714495149497
12,9.523761486232408,0.0013931944945186504
13,10.204019473624456,0.0006857922346014323
14,10.884291066720479,0.0005904509247880225
15,11.564562659816504,0.000424937176122258
16,12.244834252912527,0.00027428223784416834
17,12.92510584600855,0.0001508326128813332
18,13.7414208731606,1.7341527795461977e-05
19,14.421692466256623,1.645573191324281e-05
20,15.101964059352648,1.593444507656026e-05
21,15.782222046744696,1.528907454251359e-05
22,16.46249363984072,1.5238937287183924e-05
23,17.142765232936743,1.4855513974435292e-05
24,17.823036826032766,1.4486922598724241e-05
25,18.503294813424816,1.4433951169335398e-05
26,19.18356640652084,1.3952118451978074e-05
27,19.863837999616862,1.3669540853199357e-05
28,20.544109592712886,1.3314738165896014e-05
29,21.224367580104932,1.30506487424112e-05
30,21.90463917320096,1.266989983069905e-05
31,22.584910766296982,1.2321212030093196e-05
32,23.26518235939301,1.2217224548407636e-05
33,23.945440346785055,1.1757666502097492e-05
34,24.62571193988108,1.1361579469059666e-05
35,25.305983532977105,1.106158506393562e-05
36,25.986255126073125,1.0908725441066603e-05
37,26.66652671916915,1.0815174373972532e-05
38,27.210741272505174,1.037168979542733e-05
39,27.3467847065612,1.0532716970057802e-05
40,27.4828417463212,1.06129363207889e-05
41,27.618898786081196,1.0428182051667379e-05
42,27.7549558258412,1.037173584670458e-05
43,27.89099925989722,1.0499461813833676e-05
44,28.02705629965722,1.0542097007537028e-05
45,28.16311333941722,1.0130984499275857e-05
46,28.299170379177223,1.0424841086355381e-05
47,28.435213813233247,1.0571892216368757e-05
48,28.571270852993244,1.016010020396702e-05
49,28.70732789275325,1.0312410788199383e-05
50,28.843384932513246,1.0559017934939388e-05
51,28.97942836656927,1.0215702022108387e-05
52,29.115485406329267,1.0390207618651938e-05
53,29.25154244608927,1.0562225195527909e-05
54,29.387599485849268,1.0159301528066725e-05
55,29.523642919905292,1.0248614738819779e-05
56,29.659699959665296,1.0469647116768656e-05
57,29.795756999425294,1.023807694581441e-05
58,29.931814039185298,1.0232189948088526e-05
59,30.067857473241315,1.0484903627288696e-05
60,30.20391451300132,1.0439211552359348e-05
61,30.339971552761316,1.0251426835312626e-05
62,30.47602859252132,1.0310803651653793e-05
63,30.612072026577344,1.0389292030234787e-05
64,30.74812906633734,1.0430172029285917e-05
65,30.884186106097346,1.0408955885489793e-05
66,31.020243145857343,1.0346077653919486e-05
67,31.156286579913367,1.0550056374667288e-05
68,31.292343619673364,1.0471171696115747e-05
69,31.42840065943337,1.044886117830965e-05
70,31.564457699193365,1.0525635299116445e-05
71,31.70050113324939,1.0667258455619226e-05
72,31.836558173009394,1.0535308393662873e-05
73,31.97261521276939,1.0549115395196737e-05
74,32.108672252529395,1.082924908154763e-05
75,32.244715686585415,1.0667621912121834e-05
76,32.38077272634541,1.0660014073549786e-05
77,32.51682976610541,1.0845062907068139e-05
78,32.652886805865414,1.0895682251883337e-05
79,32.78893023992144,1.0762953158504056e-05
80,32.92498727968144,1.0967386076376855e-05
81,33.06104431944144,1.107863040801885e-05
82,33.19710135920144,1.0990401244004373e-05
83,33.33314479325746,1.1087617167575782e-05
84,33.46920183301746,1.123520476135084e-05
85,33.60525887277746,1.1271409552674092e-05
86,33.74131591253746,1.1058231388322295e-05
87,33.87735934659349,1.1387242037952134e-05
88,34.01341638635349,1.1388185348366522e-05
89,34.14947342611349,1.1287963870844444e-05
90,34.285530465873485,1.1416003285153557e-05
91,34.421573899929506,1.161867325969232e-05
92,34.55763093968951,1.1592147191777313e-05
93,34.69368797944951,1.1779407898317023e-05
94,34.82974501920951,1.1708454023963511e-05
95,34.96578845326554,1.1798637120102557e-05
96,35.101845493025536,1.1785417009232448e-05
97,35.23790253278553,1.2101157448751221e-05
98,35.37395957254554,1.202378370534871e-05
99,35.51000300660156,1.2069379160366887e-05
100,35.646060046361555,1.230232503480418e-05
101,35.78211708612156,1.2297758462107438e-05
102,35.918174125881556,1.2430587159096378e-05
103,36.054217559937584,1.2268385447503478e-05
104,36.19027459969758,1.255597379188194e-05
105,36.326331639457585,1.2540820693319915e-05
106,36.46238867921758,1.280005788800797e-05
107,36.59844571897758,1.2566390074773871e-05
108,36.73448915303361,1.2793484189175947e-05
109,36.870546192793604,1.2851988930738465e-05
110,37.00660323255361,1.3079583846947473e-05
111,37.142660272313606,1.2924892566231148e-05
112,37.27870370636963,1.3071875417473291e-05
113,37.41476074612963,1.324673696324417e-05
114,37.55081778588963,1.3317728396239164e-05
115,37.686874825649625,1.3259616466373157e-05
116,37.82291825970565,1.3407931307672249e-05
117,37.958975299465656,1.3530238142536311e-05
118,38.095032339225654,1.363346835440772e-05
119,38.23108937898566,1.3634617840026494e-05
120,38.36713281304168,1.3709958468363315e-05
121,38.503189852801675,1.374180083564391e-05
122,38.63924689256167,1.3929493917009333e-05
123,38.77530393232168,1.396890214534133e-05
124,38.911347366377704,1.3828087511126638e-05
125,39.0474044061377,1.4080593496419342e-05
126,39.183461445897706,1.420518992346051e-05
127,39.3195184856577,1.436196545775879e-05
128,39.45556191971372,1.4283275561257757e-05
129,39.59161895947372,1.4432407170099645e-05
130,39.727675999233725,1.453893957333364e-05
131,39.86373303899372,1.4673210110671007e-05
132,39.99977647304975,1.469587605016165e-05
133,40.135833512809754,1.453222726204277e-05
134,40.27189055256975,1.4926295772331615e-05
135,40.407947592329755,1.4963360131299192e-05
136,40.54399102638577,1.4978600131281875e-05
137,40.68004806614577,1.4989910406805692e-05
138,40.81610510590577,1.4945942731920858e-05
139,40.952162145665774,5.222855183366843e-06
140,41.0882055797218,5.019281749665976e-06
141,41.2242626194818,5.037039633294872e-06
142,41.3603196592418,4.953818024857415e-06
143,41.4963766990018,5.0810798631688576e-06
144,41.63242013305782,4.944810516187458e-06
145,41.76847717281782,4.861010682044243e-06
146,41.90453421257782,4.8115831215834e-06
147,42.04059125233782,4.794076313430749e-06
148,42.17663468639385,4.8433402082451415e-06
149,42.31269172615385,4.644066790815151e-06
150,42.44874876591385,4.646228106581025e-06
151,42.584805805673845,4.655765474821951e-06
152,42.720849239729866,4.64207784645031e-06
153,42.85690627948987,4.570755418243743e-06
154,42.99296331924987,4.488259107425725e-06
155,43.12902035900987,4.479458896199567e-06
156,43.2650637930659,4.492246415580976e-06
157,43.401120832825896,4.432743852940341e-06
158,43.53717787258589,4.355030585312262e-06
159,43.67323491234589,4.278411773424804e-06
160,43.80927834640192,4.257333698434472e-06
161,43.945335386161915,4.288122751377205e-06
162,44.08139242592192,4.212045838171584e-06
163,44.217449465681916,4.135434431733206e-06
164,44.353492899737944,4.085701539440916e-06
165,44.48954993949794,4.05970371260236e-06
166,44.62560697925794,4.074455589591095e-06
167,44.761664019017935,3.952237111029449e-06
168,44.89770745307396,3.886493992522549e-06
169,45.03376449283397,3.836526525581719e-06
170,45.169821532593964,3.902670955202312e-06
171,45.30587857235397,3.911788227878553e-06
172,45.44192200640999,3.74004534574044e-06
173,45.577979046169986,3.667685656292513e-06
174,45.71403608592998,3.5843676142979836e-06
175,45.85009312568999,3.609962455183208e-06
176,45.986136559746015,3.651173979336762e-06
177,46.12219359950601,3.5354394034596238e-06
178,46.258250639266016,3.4647068231549138e-06
179,46.394307679026014,3.3965287962547484e-06
180,46.53035111308204,3.421209085658435e-06
181,46.66640815284203,3.429658507884207e-06
182,46.802465192602035,3.3429417077002773e-06
183,46.93852223236203,3.2819985858482683e-06
184,47.07456566641806,3.1982806652401834e-06
185,47.210622706178064,3.2592189908761003e-06
186,47.34667974593806,3.2255383448351135e-06
187,47.482736785698066,3.2017789952063285e-06
188,47.618780219754086,3.126974243670255e-06
189,47.75483725951408,2.9767595645637613e-06
190,47.89089429927408,3.0125822471973238e-06
191,48.026951339034085,3.0271517960858443e-06
192,48.16299477309011,2.962877924038796e-06
193,48.29905181285011,3.0334627029124894e-06
194,48.43506041766452,3.209435677639267e-06
195,48.43515728755569,3.209442096495404e-06
196,48.57116589237011,3.2095312982896744e-06
197,48.707222932130115,3.2077017714119693e-06
198,48.84326636618613,3.1691597029143024e-06
199,48.97932340594613,3.2410476699464284e-06
200,49.11538044570613,3.089221629584102e-06
201,49.251437485466134,3.046620505797694e-06
202,49.38748091952216,3.0146190465912893e-06
203,49.52353795928216,2.9430705010685905e-06
204,49.65959499904216,3.003423388037481e-06
205,49.79565203880216,3.0225595905483626e-06
206,49.93169547285818,2.8594769821182255e-06
207,50.06775251261818,2.8397036753950083e-06
208,50.20380955237818,2.80943473651835e-06
209,50.33986659213818,2.711186501075534e-06
210,50.47591002619421,2.8799472812295316e-06
211,50.61196706595421,2.8324301765507183e-06
212,50.74802410571421,2.6862609771786247e-06
213,50.884081145474205,2.668460481074923e-06
214,51.02007355950089,2.6159407119508222e-06
215,51.02017559955957,2.6159459438277123e-06
216,51.15618161929023,2.8823303244401634e-06
217,51.29223865905023,2.901005646847693e-06
218,51.42829569881023,2.7384523177085857e-06
219,51.56433913286626,2.7068723853123823e-06
220,51.700396172626256,2.659944111911849e-06
221,51.83645321238625,2.579838204157218e-06
222,51.97251025214625,2.7289320014344277e-06
223,52.10855368620228,2.74861359139804e-06
224,52.24455848141958,2.6866279751490335e-06
225,52.244662970504976,2.68663334840336e-06
226,52.38066776572228,2.668085768130802e-06
227,52.516724805482276,2.624155939141488e-06
228,52.652768239538304,2.5227511762821756e-06
229,52.7888252792983,2.719964783526927e-06
230,52.92482939423041,2.716003985805411e-06
231,52.924935243886196,2.716009417813228e-06
232,53.060939358818295,2.6436049161166233e-06
233,53.19698279287432,2.612354844162475e-06
234,53.33303983263433,2.553395888075754e-06
235,53.469096872394324,2.4517607047531734e-06
236,53.60515391215433,2.7185313606018653e-06
237,53.74119734621035,2.6230359686991666e-06
238,53.877254385970346,2.5382139838824602e-06
239,54.01331142573034,2.4893525089644617e-06
240,54.14936846549035,2.4495872440142214e-06
241,54.285411899546375,2.3425308340045577e-06
242,54.55752597906638,2.556875164948966e-06
243,61.36021469861866,1.1247017514693472e-06
244,68.16288981246697,1.0478823405945268e-06
245,74.96557853201926,1.0183159364500782e-06
246,81.76825364586757,9.878673115276143e-07
247,88.57094236541987,9.615847602737026e-07
248,95.37363108497215,9.331476685481661e-07
249,102.17630619882047,9.06256378045137e-07
250,108.97899491837275,8.841957356562679e-07
251,115.78168363792504,8.639450420725589e-07
252,122.58435875177334,8.459760183864314e-07
253,129.38704747132562,8.297230787900631e-07
254,136.05367915111793,8.152196408384902e-07
255,136.1897361908779,8.149337245159511e-07
256,204.0805119238249,7.035751814019286e-07
257,272.10735830223587,7.665495069076067e-07
258,340.1341910749428,8.758730671906558e-07
259,408.1610238476498,9.526382386487378e-07
260,476.18787022606074,1.0174485628886243e-06
261,544.2147029987677,1.0874945243647887e-06
262,612.2415493771787,1.177121685611814e-06
263,680.2683821498856,1.2812361728400028e-06
264,748.2952149225927,1.381374937274993e-06
265,816.3220613010035,1.478112519646721e-06
266,884.3488940737104,1.5719946970788934e-06
267,952.3757404521215,1.6634192223789984e-06
268,1020.4025732248285,1.7526855177749418e-06
269,1088.4294196032395,1.8400258439842409e-06
270,1156.4562523759464,1.925624903066413e-06
271,1224.4830851486533,2.0096330148607023e-06
272,1292.5099315270643,2.092174840540622e-06
273,1360.5367642997712,2.173355417108343e-06
274,1496.590443450889,2.331980310320796e-06
275,1632.644122602007,2.486095309927915e-06
276,1768.697801753125,2.6361574368539054e-06
277,1904.7514672985392,2.7825334214682077e-06
278,2040.805146449657,2.925524865972074e-06
279,2176.8588256007747,3.0653845570582124e-06
280,2312.912504751893,3.2023277882180845e-06
281,2448.966183903011,3.336540306314602e-06
282,2585.0198630541286,3.4681841349525986e-06
283,2721.0735285995424,3.5974019126614898e-06
284,2857.1272077506605,3.724320309293588e-06
285,2993.180886901778,3.84905251049818e-06
286,3129.2345660528963,3.9717003578236006e-06
287,3265.288245204014,4.092355982380952e-06
288,3401.3419107494283,4.211103133916904e-06
289,3537.3955899005464,4.328018356347254e-06
290,3673.4492690516645,4.443171800390981e-06
291,3809.502948202782,4.556628065169051e-06
292,3945.5566273539002,4.6684468274991775e-06
293,4081.610306505018,4.77868339204303e-06
294,4217.663972050432,4.887389147944682e-06
295,4353.717651201549,4.99461204095154e-06
296,4489.771330352668,5.100396827401206e-06
297,4625.825009503786,5.204785441128328e-06
298,4761.878688654903,5.307817250181737e-06
299,4897.932354200318,5.409529274304531e-06
300,5033.986033351435,5.509956448006668e-06
301,5170.039712502553,5.60913172051815e-06
302,5306.0933916536715,5.707086272079576e-06
303,5442.147070804789,5.803849650791574e-06
304,5578.200749955907,5.89944989509989e-06
305,5714.254415501321,5.993913638790979e-06
306,5850.308094652439,6.087266275800683e-06
307,5986.361773803556,6.179531963223054e-06
308,6122.415452954675,6.2707337674633306e-06
309,6258.469132105793,6.3608937285234465e-06
310,6394.522797651206,6.450032908913704e-06
311,6530.576476802325,6.538171525496143e-06
312,6666.630155953442,6.6253289115090535e-06
313,6802.68383510456,6.711523634216934e-06
314,6938.737514255678,6.7967735285575615e-06
315,7074.791179801093,6.881095724077762e-06
316,7210.8448589522095,6.964506747035854e-06
317,7346.898538103329,7.0470224723832195e-06
318,7482.952217254446,7.128658212930853e-06
319,7619.005896405564,7.209428741663376e-06
320,7755.059575556682,7.2893483184200224e-06
321,7891.113241102096,7.368430707373629e-06
322,8027.166920253213,7.446689254479976e-06
323,8163.220599404332,7.52413682946284e-06
324,8299.27427855545,7.600785905094563e-06
325,8435.327957706568,7.676648562699506e-06
326,8571.38162325198,7.751736500734629e-06
327,8707.435302403099,7.826061103011506e-06
328,8843.488981554217,7.899633374791078e-06
329,8979.542660705336,7.972464017444156e-06
330,9115.596339856453,8.044563424474722e-06
331,9251.650019007571,8.115941700497139e-06
332,9387.703684552984,8.18660865549258e-06
333,9523.757363704102,8.256573871788633e-06
334,9659.81104285522,8.32584664166272e-06
335,9795.86472200634,8.394436022895276e-06
336,9931.918401157456,8.462350843562942e-06
337,10067.97206670287,8.529599695235986e-06
338,10204.025745853987,8.596190985269682e-06
339,10340.079425005106,8.662132885240903e-06
340,10476.133104156224,8.727433381411424e-06
341,10612.186783307343,8.792100267265366e-06
342,10748.24046245846,8.856141155941632e-06
343,10884.294128003874,8.919563467804981e-06
344,11020.34780715499,8.982374498852273e-06
345,11156.40148630611,9.044581337131726e-06
346,11292.455165457228,9.106190930684314e-06
347,11428.508844608346,9.167210079987657e-06
348,11564.562510153759,9.227645421010775e-06
349,11700.616189304877,9.28750348887568e-06
350,11836.669868455994,9.346790644333773e-06
351,11972.723547607113,9.405513131512315e-06
352,12108.777226758231,9.463677069730438e-06
353,12244.83090590935,9.521288448745721e-06
354,12380.884571454762,9.57835313662164e-06
355,12516.938250605881,9.634876917875667e-06
356,12652.991929756998,9.690865427401861e-06
357,12789.045608908116,9.746324213782313e-06
358,12925.099288059235,9.801258713632572e-06
359,13061.15295360465,9.855674254545588e-06
360,13197.206632755768,9.909576100082462e-06
361,13333.260311906884,9.962969384515122e-06
362,13469.313991058003,1.0015859163674009e-05
363,13605.36767020912,1.0068250400104198e-05
364,16326.441198808663,1.1018337267234126e-05
365,19047.514727408205,1.1803348387967201e-05
366,21768.58826961345,1.2448405048607031e-05
367,24489.661798212994,1.2973253903788756e-05
368,27210.735326812537,1.3393937438862544e-05
369,29931.808869017783,1.3723801106481025e-05
370,32652.882397617326,1.3974143316659788e-05
371,35373.95592621687,1.4154658627357499e-05
372,38095.029468422115,1.4273754490130475e-05
373,40816.10299702166,1.4338787471303045e-05
374,43537.1765392269,1.435624639876414e-05
375,46258.25006782645,1.4331899050628789e-05
376,48979.32359642599,1.4270912556489278e-05
377,51700.39713863123,1.4177953168135203e-05
378,54421.47066723078,1.4057269756645421e-05
379,57142.54419583032,1.3912763303566038e-05
380,59863.617738035566,1.3748043997826229e-05
381,62584.691266635105,1.3566470943677829e-05
382,65305.76479523465,1.3371195302912593e-05
383,68026.8383374399,1.3165174859884156e-05
384,70747.91186603945,1.2951213359699473e-05
385,73468.98539463898,1.2731946648772157e-05
386,76190.05893684423,1.25098782505418e-05
387,78911.13246544376,1.2287356196914457e-05
388,81632.20599404332,1.2066583562237452e-05
389,84353.27953624855,1.1849621884062783e-05
390,87074.35306484811,1.1638450322657676e-05
391,89795.42659344764,1.143481331575805e-05
392,92516.5001356529,1.1240377629140908e-05
393,95237.57366425243,1.1055060524883999e-05
394,97958.64719285197,1.0878012179086639e-05
395,100679.72073505721,1.0708648744373785e-05
396,103400.79426365678,1.0546441948640741e-05
397,106121.86779225631,1.0390912530031916e-05
398,108842.94133446156,1.0241624559977546e-05
399,111564.0148630611,1.0098180559513376e-05
400,114285.08839166064,9.960217277267389e-06
401,117006.16193386588,9.827402001937233e-06
402,119727.23546246543,9.699429357556824e-06
403,122448.30900467066,9.576018501271253e-06
404,125169.38253327021,9.456910655951926e-06
405,127890.45606186974,9.341866940829574e-06
406,130611.529604075,9.230666465852854e-06
407,133332.60313267456,9.123104618037138e-06
408,136053.6766612741,9.018991582624062e-06
409,138774.75020347934,8.91815098244618e-06
410,141495.8237320789,8.82041869579597e-06
411,144216.89726067844,8.725641787028514e-06
412,146937.97080288368,8.633677547843596e-06
413,149659.04433148322,8.544392640356975e-06
414,156461.72816658777,8.332103155220938e-06
415,163264.4120016923,8.134056066173443e-06
416,170067.0958367969,7.948759243655953e-06
417,176869.77965829574,7.774928703331945e-06
418,183672.4634934003,7.611452893119858e-06
419,190475.14732850486,7.457364153011969e-06
420,197277.83116360943,7.3118157406275235e-06
421,204080.51499871397,7.174063163525555e-06
422,210883.19883381855,7.043448916755403e-06
423,217685.88266892312,6.91938989793197e-06
424,224488.56649042197,6.801366972089119e-06
425,231291.25032552652,6.6889162772915836e-06
426,238093.93416063106,6.581621910627363e-06
427,244896.61799573564,6.479109770412732e-06
428,251699.30183084018,6.381042334416128e-06
429,258501.98566594475,6.287114208165957e-06
430,265304.6695010493,6.197048317326847e-06
431,272107.3533225482,6.110592633431449e-06
432,278910.0371576527,6.0275173570409105e-06
433,285712.7209927573,5.947612463131793e-06
434,292515.4048278619,5.870685585517981e-06
435,299318.08866296645,5.7965601567435615e-06
436,306120.77249807096,5.72507379123486e-06
437,312923.45633317553,5.6560768575532135e-06
438,319726.1401682801,5.589431224164714e-06
439,326528.82398977893,5.525009161718646e-06
440,333331.50782488356,5.462692351656642e-06
441,340134.1916599881,5.402371024409172e-06
442,346936.87549509265,5.343943185327511e-06
443,353739.5593301972,5.287313921846206e-06
444,360542.24316530174,5.232394785181474e-06
445,367344.9270004063,5.179103246774237e-06
446,374147.6108219052,5.127362189183198e-06
447,380950.2946570097,5.077099472453274e-06
