,E (eV),I (erg/s/cm**2)
0,1.360543186192048,0.0007369542590168188
1,2.0408011735840956,0.0008779726008678006
2,2.7210727666801198,0.0008178669532282302
3,3.401344359776144,0.000710996880284685
4,4.081615952872168,0.0008264973330403285
5,4.761873940264215,0.0009905370789235891
6,5.4421455333602395,0.0011480360670017458
7,6.122417126456264,0.0012980786247290524
8,6.802688719552288,0.0014420566303476315
9,7.482946706944335,0.0015536856284365753
10,8.16321830004036,0.001654315111017547
11,8.843489893136384,0.0017245513641091028
12,9.523761486232408,0.001732612052304115
13,10.204019473624456,0.0008451882078072294
14,10.884291066720479,0.000745503938285522
15,11.564562659816504,0.0006032891859733486
16,12.244834252912527,0.00036212211795487177
17,12.92510584600855,0.00018543636399026784
18,13.7414208731606,1.5146629061423486e-05
19,14.421692466256623,1.4302626522995244e-05
20,15.101964059352648,1.3745589071184982e-05
21,15.782222046744696,1.3013667224183e-05
22,16.46249363984072,1.3109403478846395e-05
23,17.142765232936743,1.2989898335692881e-05
24,17.823036826032766,1.2705918074693089e-05
25,18.503294813424816,1.2505172233221954e-05
26,19.18356640652084,1.2314057761890964e-05
27,19.863837999616862,1.197987194638285e-05
28,20.544109592712886,1.2250530580726982e-05
29,21.224367580104932,1.163180058381554e-05
30,21.90463917320096,1.1271802421974352e-05
31,22.584910766296982,1.1217231131267548e-05
32,23.26518235939301,1.1217060816565379e-05
33,23.945440346785055,1.0945888491726567e-05
34,24.62571193988108,1.0589765844450919e-05
35,25.305983532977105,1.0343616544267963e-05
36,25.986255126073125,1.0186896118680925e-05
37,26.66652671916915,9.732572774392993e-06
38,27.210741272505174,9.516484302657285e-06
39,27.3467847065612,9.482526690704473e-06
40,27.4828417463212,9.366544716354306e-06
41,27.618898786081196,9.270918279863083e-06
42,27.7549558258412,9.474133198957777e-06
43,27.89099925989722,9.191452015414989e-06
44,28.02705629965722,9.216965658198918e-06
45,28.16311333941722,9.263864567141116e-06
46,28.299170379177223,9.113075871198525e-06
47,28.435213813233247,9.353617780086192e-06
48,28.571270852993244,9.229646360697866e-06
49,28.70732789275325,9.089672661419076e-06
50,28.843384932513246,9.131782684908087e-06
51,28.97942836656927,9.234452813602113e-06
52,29.115485406329267,9.048163064678238e-06
53,29.25154244608927,9.141397457395447e-06
54,29.387599485849268,9.060368960493444e-06
55,29.523642919905292,8.749015931140532e-06
56,29.659699959665296,8.939163029589124e-06
57,29.795756999425294,9.029206135795715e-06
58,29.931814039185298,8.73266877610711e-06
59,30.067857473241315,9.008706611203524e-06
60,30.20391451300132,8.881241354900353e-06
61,30.339971552761316,8.680243961814592e-06
62,30.47602859252132,9.038970062220534e-06
63,30.612072026577344,8.782454256139394e-06
64,30.74812906633734,8.77896066823548e-06
65,30.884186106097346,8.915081846415374e-06
66,31.020243145857343,8.745756496469177e-06
67,31.156286579913367,8.899933766144262e-06
68,31.292343619673364,9.05432053614912e-06
69,31.42840065943337,8.691839280688538e-06
70,31.564457699193365,8.914581587354188e-06
71,31.70050113324939,9.100059945332954e-06
72,31.836558173009394,8.91350740197383e-06
73,31.97261521276939,8.953350473836029e-06
74,32.108672252529395,9.007436848623529e-06
75,32.244715686585415,9.192557878732784e-06
76,32.38077272634541,9.107145332918527e-06
77,32.51682976610541,8.93621952258159e-06
78,32.652886805865414,9.372294344938678e-06
79,32.78893023992144,9.259149901434773e-06
80,32.92498727968144,9.132425368273895e-06
81,33.06104431944144,9.564986577065728e-06
82,33.19710135920144,9.506796081346363e-06
83,33.33314479325746,9.273113384595886e-06
84,33.46920183301746,9.872546874639762e-06
85,33.60525887277746,9.678405837155375e-06
86,33.74131591253746,9.579760171906709e-06
87,33.87735934659349,1.002157378254273e-05
88,34.01341638635349,1.0141803608876181e-05
89,34.14947342611349,9.803486917309616e-06
90,34.285530465873485,1.0054226594079668e-05
91,34.421573899929506,1.0565594375715512e-05
92,34.55763093968951,1.012250425672955e-05
93,34.69368797944951,1.0254442569217514e-05
94,34.82974501920951,1.0803064645611873e-05
95,34.96578845326554,1.0571920797574267e-05
96,35.101845493025536,1.0443283054919731e-05
97,35.23790253278553,1.1272463441816264e-05
98,35.37395957254554,1.1082903805337537e-05
99,35.51000300660156,1.0829415130274214e-05
100,35.646060046361555,1.1541744408923326e-05
101,35.78211708612156,1.1465759146408446e-05
102,35.918174125881556,1.1457156073183917e-05
103,36.054217559937584,1.1655605971005109e-05
104,36.19027459969758,1.190518452946561e-05
105,36.326331639457585,1.2099489369283432e-05
106,36.46238867921758,1.2042338479076496e-05
107,36.59844571897758,1.241662980250377e-05
108,36.73448915303361,1.2393361956456694e-05
109,36.870546192793604,1.227930557361538e-05
110,37.00660323255361,1.2802157771575747e-05
111,37.142660272313606,1.2902129794637658e-05
112,37.27870370636963,1.296941567025494e-05
113,37.41476074612963,1.3191474981562253e-05
114,37.55081778588963,1.3491624199097847e-05
115,37.686874825649625,1.34870482596155e-05
116,37.82291825970565,1.3853678084342405e-05
117,37.958975299465656,1.4069704935767503e-05
118,38.095032339225654,1.404540226999273e-05
119,38.23108937898566,1.3995435876391372e-05
120,38.36713281304168,1.4467989062808907e-05
121,38.503189852801675,1.4634920496094894e-05
122,38.63924689256167,1.460286246639401e-05
123,38.77530393232168,1.5052890074304483e-05
124,38.911347366377704,1.5273243221557445e-05
125,39.0474044061377,1.529748014144348e-05
126,39.183461445897706,1.5318947747970813e-05
127,39.3195184856577,1.5866424225165166e-05
128,39.45556191971372,1.6058219305508718e-05
129,39.59161895947372,1.611632684207764e-05
130,39.727675999233725,1.6076786384399154e-05
131,39.86373303899372,1.6428828301198744e-05
132,39.99977647304975,1.689561598127509e-05
133,40.135833512809754,1.6985896002417874e-05
134,40.27189055256975,1.677062223298297e-05
135,40.407947592329755,1.7336145506359658e-05
136,40.54399102638577,1.7659872770485496e-05
137,40.68004806614577,1.7823730415343302e-05
138,40.81610510590577,1.7492070954718163e-05
139,40.952162145665774,4.654373074387419e-06
140,41.0882055797218,4.624342334701288e-06
141,41.2242626194818,4.5206282561824445e-06
142,41.3603196592418,4.4236950046206056e-06
143,41.4963766990018,4.577167697197467e-06
144,41.63242013305782,4.4080632951883544e-06
145,41.76847717281782,4.313562259073704e-06
146,41.90453421257782,4.279043403430362e-06
147,42.04059125233782,4.3561857826352554e-06
148,42.17663468639385,4.042665944066499e-06
149,42.31269172615385,4.089739342250048e-06
150,42.44874876591385,4.169755696614817e-06
151,42.584805805673845,4.1934052332849675e-06
152,42.720849239729866,3.87921536589626e-06
153,42.85690627948987,3.97437502494136e-06
154,42.99296331924987,4.057996380336924e-06
155,43.12902035900987,3.994604935243284e-06
156,43.2650637930659,3.770175897915982e-06
157,43.401120832825896,3.761077190185502e-06
158,43.53717787258589,3.870266727837579e-06
159,43.67323491234589,3.7537051567533886e-06
160,43.80927834640192,3.568891051983573e-06
161,43.945335386161915,3.5755855955858517e-06
162,44.08139242592192,3.619880506077587e-06
163,44.217449465681916,3.5222017350514818e-06
164,44.353492899737944,3.3454334997898356e-06
165,44.48954993949794,3.2814160103525778e-06
166,44.62560697925794,3.32728785646317e-06
167,44.761664019017935,3.2555991987048916e-06
168,44.89770745307396,3.1325314508649536e-06
169,45.03376449283397,3.118732525156123e-06
170,45.169821532593964,3.1313136882199817e-06
171,45.30587857235397,3.081087004399193e-06
172,45.44192200640999,2.832827718844026e-06
173,45.577979046169986,2.8083471023494077e-06
174,45.71403608592998,2.7912865204164244e-06
175,45.85009312568999,2.765664748886665e-06
176,45.986136559746015,2.5855822893210817e-06
177,46.12219359950601,2.5546622731232345e-06
178,46.258250639266016,2.5777242686432896e-06
179,46.394307679026014,2.6106814747651793e-06
180,46.53035111308204,2.3729275577966037e-06
181,46.66640815284203,2.3069251831524137e-06
182,46.802465192602035,2.3251570379728865e-06
183,46.93852223236203,2.435112182979831e-06
184,47.07456566641806,2.3410550593952337e-06
185,47.210622706178064,2.1470662685878284e-06
186,47.34667974593806,2.0959864919060256e-06
187,47.482736785698066,2.1903872376565712e-06
188,47.618780219754086,2.194696754183791e-06
189,47.75483725951408,1.9003028462042537e-06
190,47.89089429927408,1.8521060360601894e-06
191,48.026951339034085,1.8603254765828566e-06
192,48.16299477309011,1.9279209892796585e-06
193,48.29905181285011,1.9029824468637903e-06
194,48.43506041766452,2.3381694506155882e-06
195,48.43515728755569,2.3381741269434023e-06
196,48.57116589237011,2.368647393765686e-06
197,48.707222932130115,2.3316026302678223e-06
198,48.84326636618613,2.3721825030119754e-06
199,48.97932340594613,2.2972989678866717e-06
200,49.11538044570613,2.196850839491741e-06
201,49.251437485466134,2.1492679496884968e-06
202,49.38748091952216,2.055180121558385e-06
203,49.52353795928216,2.0762295818452154e-06
204,49.65959499904216,2.0245432345241548e-06
205,49.79565203880216,1.9533366919942856e-06
206,49.93169547285818,1.8863168215829145e-06
207,50.06775251261818,1.8798898938446213e-06
208,50.20380955237818,1.8406302700841317e-06
209,50.33986659213818,1.794314040485914e-06
210,50.47591002619421,1.7462034461535018e-06
211,50.61196706595421,1.7097829351072926e-06
212,50.74802410571421,1.7238602785978486e-06
213,50.884081145474205,1.7570896919445597e-06
214,51.02007355950089,1.6156900559795069e-06
215,51.02017559955957,1.6156932873568185e-06
216,51.15618161929023,1.886889490573932e-06
217,51.29223865905023,1.8687006168980026e-06
218,51.42829569881023,1.8731862962644138e-06
219,51.56433913286626,1.6877719757940392e-06
220,51.700396172626256,1.694623443510041e-06
221,51.83645321238625,1.7175373472720351e-06
222,51.97251025214625,1.7052699596276152e-06
223,52.10855368620228,1.6502259215299707e-06
224,52.24455848141958,1.7158084414095641e-06
225,52.244662970504976,1.7158118730254103e-06
226,52.38066776572228,1.7702162025698854e-06
227,52.516724805482276,1.7633186328837355e-06
228,52.652768239538304,1.755103448105139e-06
229,52.7888252792983,1.6992443833425297e-06
230,52.92482939423041,1.729788897292367e-06
231,52.924935243886196,1.729792356870063e-06
232,53.060939358818295,1.7945587460898425e-06
233,53.19698279287432,1.7403046033554402e-06
234,53.33303983263433,1.749220987962373e-06
235,53.469096872394324,1.7205894802144612e-06
236,53.60515391215433,1.606001383718833e-06
237,53.74119734621035,1.6883370839123205e-06
238,53.877254385970346,1.620564998947221e-06
239,54.01331142573034,1.6145698025260495e-06
240,54.14936846549035,1.6203414752654715e-06
241,54.285411899546375,1.4971448081330097e-06
242,54.55752597906638,1.5110268336868023e-06
243,61.36021469861866,4.531032811718183e-07
244,68.16288981246697,4.1901270109774744e-07
245,74.96557853201926,4.259525230466063e-07
246,81.76825364586757,4.262832214307975e-07
247,88.57094236541987,4.340350958682431e-07
248,95.37363108497215,4.3534146602018596e-07
249,102.17630619882047,4.354782387252414e-07
250,108.97899491837275,4.350561020854299e-07
251,115.78168363792504,4.320271018809623e-07
252,122.58435875177334,4.291001483637109e-07
253,129.38704747132562,4.2664598173043304e-07
254,136.05367915111793,4.247399763681848e-07
255,136.1897361908779,4.247029686007079e-07
256,204.0805119238249,4.1016437206106747e-07
257,272.10735830223587,4.6916227259265607e-07
258,340.1341910749428,5.684465218789107e-07
259,408.1610238476498,6.393859376755201e-07
260,476.18787022606074,6.937310728696156e-07
261,544.2147029987677,7.455735542065752e-07
262,612.2415493771787,8.103562585179844e-07
263,680.2683821498856,8.872152771168027e-07
264,748.2952149225927,9.603924430333894e-07
265,816.3220613010035,1.030531785706947e-06
266,884.3488940737104,1.0981970136008725e-06
267,952.3757404521215,1.163793878938758e-06
268,1020.4025732248285,1.2276216944599059e-06
269,1088.4294196032395,1.289906955281278e-06
270,1156.4562523759464,1.3508250867265707e-06
271,1224.4830851486533,1.4105150761748299e-06
272,1292.5099315270643,1.469089239049967e-06
273,1360.5367642997712,1.5266399366376332e-06
274,1496.590443450889,1.638968232213545e-06
275,1632.644122602007,1.747991324550285e-06
276,1768.697801753125,1.854078439559496e-06
277,1904.7514672985392,1.9575178327623104e-06
278,2040.805146449657,2.0585414671123547e-06
279,2176.8588256007747,2.1573404560493383e-06
280,2312.912504751893,2.2540753648764522e-06
281,2448.966183903011,2.34888323148943e-06
282,2585.0198630541286,2.4418825533088845e-06
283,2721.0735285995424,2.533176920870645e-06
284,2857.1272077506605,2.6228577960708316e-06
285,2993.180886901778,2.7110065219361347e-06
286,3129.2345660528963,2.7976960006289527e-06
287,3265.288245204014,2.8829919645112185e-06
288,3401.3419107494283,2.966954002856675e-06
289,3537.3955899005464,3.0496364456804643e-06
290,3673.4492690516645,3.131088987163186e-06
291,3809.502948202782,3.2113573057953854e-06
292,3945.5566273539002,3.2904835346336966e-06
293,4081.610306505018,3.368506666833142e-06
294,4217.663972050432,3.445462893579448e-06
295,4353.717651201549,3.521385942859698e-06
296,4489.771330352668,3.5963072690190512e-06
297,4625.825009503786,3.6702563170892316e-06
298,4761.878688654903,3.743260710141322e-06
299,4897.932354200318,3.8153464022800885e-06
300,5033.986033351435,3.886537871068806e-06
301,5170.039712502553,3.956858189253147e-06
302,5306.0933916536715,4.026329176536299e-06
303,5442.147070804789,4.094971499557918e-06
304,5578.200749955907,4.1628047606287116e-06
305,5714.254415501321,4.229847570811392e-06
306,5850.308094652439,4.296117665403378e-06
307,5986.361773803556,4.3616319104440585e-06
308,6122.415452954675,4.426406402694189e-06
309,6258.469132105793,4.490456515863758e-06
310,6394.522797651206,4.553796940410432e-06
311,6530.576476802325,4.616441765448837e-06
312,6666.630155953442,4.678404466878617e-06
313,6802.68383510456,4.7396979761449595e-06
314,6938.737514255678,4.800334712939597e-06
315,7074.791179801093,4.860326603873333e-06
316,7210.8448589522095,4.919685148596273e-06
317,7346.898538103329,4.97842139096475e-06
318,7482.952217254446,5.03654598405062e-06
319,7619.005896405564,5.09406919989949e-06
320,7755.059575556682,5.151000949105621e-06
321,7891.113241102096,5.207350799975895e-06
322,8027.166920253213,5.263128021165528e-06
323,8163.220599404332,5.318341554764547e-06
324,8299.27427855545,5.373000061356928e-06
325,8435.327957706568,5.427111929764706e-06
326,8571.38162325198,5.480685277990521e-06
327,8707.435302403099,5.533728003685753e-06
328,8843.488981554217,5.5862477465068825e-06
329,8979.542660705336,5.638251924209483e-06
330,9115.596339856453,5.689747747592161e-06
331,9251.650019007571,5.740742218307199e-06
332,9387.703684552984,5.791242140347988e-06
333,9523.757363704102,5.84125415154215e-06
334,9659.81104285522,5.890784689830118e-06
335,9795.86472200634,5.939840029856244e-06
336,9931.918401157456,5.988426286279929e-06
337,10067.97206670287,6.03654940610305e-06
338,10204.025745853987,6.0842152124950965e-06
339,10340.079425005106,6.131429361336361e-06
340,10476.133104156224,6.178197376752684e-06
341,10612.186783307343,6.224524652828754e-06
342,10748.24046245846,6.270416453843245e-06
343,10884.294128003874,6.315877915428734e-06
344,11020.34780715499,6.360914079976591e-06
345,11156.40148630611,6.4055298504158775e-06
346,11292.455165457228,6.4497300310465365e-06
347,11428.508844608346,6.493519317602046e-06
348,11564.562510153759,6.536902298541917e-06
349,11700.616189304877,6.579883489744061e-06
350,11836.669868455994,6.622467285326541e-06
351,11972.723547607113,6.664657998508801e-06
352,12108.777226758231,6.706459852684266e-06
353,12244.83090590935,6.7478769887907715e-06
354,12380.884571454762,6.788913455449607e-06
355,12516.938250605881,6.829573243591822e-06
356,12652.991929756998,6.86986024908002e-06
357,12789.045608908116,6.909778293956667e-06
358,12925.099288059235,6.949331133413832e-06
359,13061.15295360465,6.9885224452901775e-06
360,13197.206632755768,7.027355855420839e-06
361,13333.260311906884,7.065834910635409e-06
362,13469.313991058003,7.103963093825623e-06
363,13605.36767020912,7.141743829571058e-06
364,16326.441198808663,7.829188518435443e-06
365,19047.514727408205,8.401308791380071e-06
366,21768.58826961345,8.87538657763899e-06
367,24489.661798212994,9.26499779273924e-06
368,27210.735326812537,9.581172409072288e-06
369,29931.808869017783,9.833091799944876e-06
370,32652.882397617326,1.0028537222589435e-05
371,35373.95592621687,1.0174194158503234e-05
372,38095.029468422115,1.0275868007971514e-05
373,40816.10299702166,1.0338642999749443e-05
374,43537.1765392269,1.0367003531980483e-05
375,46258.25006782645,1.0364930080149896e-05
376,48979.32359642599,1.0335977714227696e-05
377,51700.39713863123,1.028334233178803e-05
378,54421.47066723078,1.0209918327847805e-05
379,57142.54419583032,1.0118348477148188e-05
380,59863.617738035566,1.0011068749556923e-05
381,62584.691266635105,9.890348574494049e-06
382,65305.76479523465,9.758323488096748e-06
383,68026.8383374399,9.61702338260383e-06
384,70747.91186603945,9.468398157598491e-06
385,73468.98539463898,9.314330851446521e-06
386,76190.05893684423,9.156674211450464e-06
387,78911.13246544376,8.997217878555067e-06
388,81632.20599404332,8.837730659308668e-06
389,84353.27953624855,8.679945460283908e-06
390,87074.35306484811,8.525606221508657e-06
391,89795.42659344764,8.376334789768617e-06
392,92516.5001356529,8.233776075861978e-06
393,95237.57366425243,8.09793799351973e-06
394,97958.64719285197,7.968161099324258e-06
395,100679.72073505721,7.844017410582382e-06
396,103400.79426365678,7.725119690851424e-06
397,106121.86779225631,7.611116624974932e-06
398,108842.94133446156,7.501688668645182e-06
399,111564.0148630611,7.396544456360675e-06
400,114285.08839166064,7.295417715549063e-06
401,117006.16193386588,7.198064558487833e-06
402,119727.23546246543,7.104261136679381e-06
403,122448.30900467066,7.013801585141632e-06
404,125169.38253327021,6.926496212262252e-06
405,127890.45606186974,6.84216991450577e-06
406,130611.529604075,6.760660770060367e-06
407,133332.60313267456,6.681818798511711e-06
408,136053.6766612741,6.605504855009355e-06
409,138774.75020347934,6.53158965619587e-06
410,141495.8237320789,6.459952892270893e-06
411,144216.89726067844,6.390482459879368e-06
412,146937.97080288368,6.323073750299565e-06
413,149659.04433148322,6.257629025777184e-06
414,156461.72816658777,6.102023739073995e-06
415,163264.4120016923,5.956858282427056e-06
416,170067.0958367969,5.821038890620948e-06
417,176869.77965829574,5.693624383153875e-06
418,183672.4634934003,5.573799967483798e-06
419,190475.14732850486,5.460856333517375e-06
420,197277.83116360943,5.354172803649485e-06
421,204080.51499871397,5.253203652733855e-06
422,210883.19883381855,5.157466920012947e-06
423,217685.88266892312,5.066535182488618e-06
424,224488.56649042197,4.980027907630038e-06
425,231291.25032552652,4.897605078424657e-06
426,238093.93416063106,4.818961831506133e-06
427,244896.61799573564,4.743823948252016e-06
428,251699.30183084018,4.671944020747261e-06
429,258501.98566594475,4.6030981901899256e-06
430,265304.6695010493,4.537083360364435e-06
431,272107.3533225482,4.4737147923934726e-06
432,278910.0371576527,4.412824040269698e-06
433,285712.7209927573,4.354257154876258e-06
434,292515.4048278619,4.29787313128262e-06
435,299318.08866296645,4.243542543455242e-06
436,306120.77249807096,4.1911463622151386e-06
437,312923.45633317553,4.140574905854871e-06
438,319726.1401682801,4.091726927556275e-06
439,326528.82398977893,4.044508795621082e-06
440,333331.50782488356,3.998833786756434e-06
441,340134.1916599881,3.954621438380128e-06
442,346936.87549509265,3.911796987910371e-06
443,353739.5593301972,3.87029086403049e-06
444,360542.24316530174,3.83003823616769e-06
445,367344.9270004063,3.790978607231816e-06
446,374147.6108219052,3.7530554537625916e-06
447,380950.2946570097,3.7162158949081976e-06
448,387752.9784921143,3.680410398044404e-06
