,E (eV),I (erg/s/cm**2)
0,1.360543186192048,0.0006143283576278639
1,2.0408011735840956,0.0007687835767309657
2,2.7210727666801198,0.0007569065579090967
3,3.401344359776144,0.0005964413684094176
4,4.081615952872168,0.000687944678880997
5,4.761873940264215,0.0007879185632012647
6,5.4421455333602395,0.0009038870512276024
7,6.122417126456264,0.0011312146656674068
8,6.802688719552288,0.001310305927296193
9,7.482946706944335,0.0014281622472686766
10,8.16321830004036,0.0016076188474375814
11,8.843489893136384,0.001742954021547843
12,9.523761486232408,0.0018585006840891709
13,10.204019473624456,0.0008864746155712383
14,10.884291066720479,0.0007876579415802725
15,11.564562659816504,0.000597734242173505
16,12.244834252912527,0.0004420546080409729
17,12.92510584600855,0.00017416177214294088
18,13.7414208731606,1.1073820266995685e-05
19,14.421692466256623,1.0072401171904357e-05
20,15.101964059352648,9.593549408579754e-06
21,15.782222046744696,8.478457009306013e-06
22,16.46249363984072,9.048682630064361e-06
23,17.142765232936743,8.999590952318206e-06
24,17.823036826032766,8.960032747886761e-06
25,18.503294813424816,8.903163807135724e-06
26,19.18356640652084,8.416181802037333e-06
27,19.863837999616862,8.54666111410825e-06
28,20.544109592712886,9.042146510658056e-06
29,21.224367580104932,8.930803405500422e-06
30,21.90463917320096,8.526772758334767e-06
31,22.584910766296982,8.410164970123949e-06
32,23.26518235939301,8.976764962076576e-06
33,23.945440346785055,8.859354612036039e-06
34,24.62571193988108,8.506038778688932e-06
35,25.305983532977105,7.825096644190162e-06
36,25.986255126073125,8.028048359681431e-06
37,26.66652671916915,7.829326473468942e-06
38,27.210741272505174,7.511345238043927e-06
39,27.3467847065612,7.42206280665491e-06
40,27.4828417463212,7.461008377043559e-06
41,27.618898786081196,7.1374929573136136e-06
42,27.7549558258412,7.365984130761977e-06
43,27.89099925989722,7.080101239449332e-06
44,28.02705629965722,7.3292248536718076e-06
45,28.16311333941722,7.050346688197081e-06
46,28.299170379177223,7.400964583071312e-06
47,28.435213813233247,7.298704130868762e-06
48,28.571270852993244,7.296745705786727e-06
49,28.70732789275325,7.316593945388925e-06
50,28.843384932513246,7.251117257600936e-06
51,28.97942836656927,7.325251451584657e-06
52,29.115485406329267,7.063333772276494e-06
53,29.25154244608927,7.083183554002269e-06
54,29.387599485849268,6.895411567310321e-06
55,29.523642919905292,6.620679687227855e-06
56,29.659699959665296,6.7466503773154495e-06
57,29.795756999425294,6.8281295161767265e-06
58,29.931814039185298,6.670386410363491e-06
59,30.067857473241315,6.872674093350186e-06
60,30.20391451300132,6.653092806482708e-06
61,30.339971552761316,6.474515483073314e-06
62,30.47602859252132,6.588639305412125e-06
63,30.612072026577344,6.336461153650432e-06
64,30.74812906633734,6.6752094385447055e-06
65,30.884186106097346,6.1432662349184e-06
66,31.020243145857343,6.675252969544928e-06
67,31.156286579913367,5.926850655027461e-06
68,31.292343619673364,6.538860202831951e-06
69,31.42840065943337,5.952391796246903e-06
70,31.564457699193365,6.265372088958937e-06
71,31.70050113324939,6.229034516174179e-06
72,31.836558173009394,5.9614520931368545e-06
73,31.97261521276939,6.415799911807346e-06
74,32.108672252529395,5.870026471590709e-06
75,32.244715686585415,6.302355312706231e-06
76,32.38077272634541,5.957011057645493e-06
77,32.51682976610541,5.9968315671842345e-06
78,32.652886805865414,6.469994561750368e-06
79,32.78893023992144,6.034147307264601e-06
80,32.92498727968144,6.47475365959433e-06
81,33.06104431944144,6.2920499000196455e-06
82,33.19710135920144,6.461742478713948e-06
83,33.33314479325746,6.443943022753059e-06
84,33.46920183301746,6.506257279062291e-06
85,33.60525887277746,6.661244123092931e-06
86,33.74131591253746,6.440800705524111e-06
87,33.87735934659349,6.58235929639265e-06
88,34.01341638635349,6.393037417324713e-06
89,34.14947342611349,6.51789349305428e-06
90,34.285530465873485,6.717410971736709e-06
91,34.421573899929506,6.566202011930478e-06
92,34.55763093968951,6.935200163317177e-06
93,34.69368797944951,6.692556875184301e-06
94,34.82974501920951,6.665468115786233e-06
95,34.96578845326554,7.2616950630635815e-06
96,35.101845493025536,6.863575350848877e-06
97,35.23790253278553,7.302264818552853e-06
98,35.37395957254554,7.549427776213563e-06
99,35.51000300660156,7.247633119094285e-06
100,35.646060046361555,7.608413564296189e-06
101,35.78211708612156,7.668461805210817e-06
102,35.918174125881556,7.653969805737138e-06
103,36.054217559937584,7.93302937938505e-06
104,36.19027459969758,7.834712318760786e-06
105,36.326331639457585,8.221133545530618e-06
106,36.46238867921758,8.093569773152262e-06
107,36.59844571897758,8.114909114574771e-06
108,36.73448915303361,8.816460232865893e-06
109,36.870546192793604,8.301753486460348e-06
110,37.00660323255361,8.582609570064281e-06
111,37.142660272313606,9.18691340037218e-06
112,37.27870370636963,8.817065094978751e-06
113,37.41476074612963,9.514104812557651e-06
114,37.55081778588963,9.5104176254937e-06
115,37.686874825649625,9.360433223613718e-06
116,37.82291825970565,1.0189532120766653e-05
117,37.958975299465656,9.73163112569079e-06
118,38.095032339225654,1.0339415594357104e-05
119,38.23108937898566,1.0617817570462866e-05
120,38.36713281304168,1.0069670342094499e-05
121,38.503189852801675,1.087412841260376e-05
122,38.63924689256167,1.1018109177080988e-05
123,38.77530393232168,1.0730811762796252e-05
124,38.911347366377704,1.161099394590267e-05
125,39.0474044061377,1.1711734746203233e-05
126,39.183461445897706,1.154986282956452e-05
127,39.3195184856577,1.2462858421871145e-05
128,39.45556191971372,1.256146393635037e-05
129,39.59161895947372,1.2447491018379115e-05
130,39.727675999233725,1.3362131826252034e-05
131,39.86373303899372,1.3472164270905415e-05
132,39.99977647304975,1.4294278575215553e-05
133,40.135833512809754,1.448132543563708e-05
134,40.27189055256975,1.4523611798460784e-05
135,40.407947592329755,1.5256399677649323e-05
136,40.54399102638577,1.5535088543822803e-05
137,40.68004806614577,1.5712566632674038e-05
138,40.81610510590577,1.575891653135452e-05
139,40.952162145665774,3.783555750090626e-06
140,41.0882055797218,3.710768280587141e-06
141,41.2242626194818,3.7894008784723844e-06
142,41.3603196592418,3.794300234198568e-06
143,41.4963766990018,3.649176714861602e-06
144,41.63242013305782,3.616096998429389e-06
145,41.76847717281782,3.7114314728634654e-06
146,41.90453421257782,3.434388340425815e-06
147,42.04059125233782,3.4244422313340234e-06
148,42.17663468639385,3.5125620918550428e-06
149,42.31269172615385,3.3131178133405316e-06
150,42.44874876591385,3.3647847411282094e-06
151,42.584805805673845,3.4687032549146267e-06
152,42.720849239729866,3.2924694473079245e-06
153,42.85690627948987,3.3333624716986303e-06
154,42.99296331924987,3.404401525225436e-06
155,43.12902035900987,3.240169661775804e-06
156,43.2650637930659,3.1846108339622474e-06
157,43.401120832825896,3.2438100098078115e-06
158,43.53717787258589,3.072471267255561e-06
159,43.67323491234589,2.9796046528640085e-06
160,43.80927834640192,3.1242021792187954e-06
161,43.945335386161915,2.855758045706637e-06
162,44.08139242592192,2.75360720413144e-06
163,44.217449465681916,2.86887583168024e-06
164,44.353492899737944,2.660649800147989e-06
165,44.48954993949794,2.433473130725829e-06
166,44.62560697925794,2.537736739827301e-06
167,44.761664019017935,2.4887951863328068e-06
168,44.89770745307396,2.34898185667638e-06
169,45.03376449283397,2.3952780254570594e-06
170,45.169821532593964,2.3363642227662144e-06
171,45.30587857235397,2.070316142056566e-06
172,45.44192200640999,1.9709998634187526e-06
173,45.577979046169986,1.9046257809394833e-06
174,45.71403608592998,1.759580049893399e-06
175,45.85009312568999,1.643952515310586e-06
176,45.986136559746015,1.7155318999535985e-06
177,46.12219359950601,1.6456294405432563e-06
178,46.258250639266016,1.4488716034579537e-06
179,46.394307679026014,1.4299232640760625e-06
180,46.53035111308204,1.3706089329553268e-06
181,46.66640815284203,1.364613733030945e-06
182,46.802465192602035,1.2706667624402184e-06
183,46.93852223236203,1.0545046998240843e-06
184,47.07456566641806,1.1677205111544158e-06
185,47.210622706178064,1.1222407884387696e-06
186,47.34667974593806,1.006012831515529e-06
187,47.482736785698066,8.581857197373401e-07
188,47.618780219754086,8.28734242514546e-07
189,47.75483725951408,8.601926192228885e-07
190,47.89089429927408,4.2060336976397204e-07
191,48.026951339034085,4.5303401605685183e-07
192,48.16299477309011,5.427121987915058e-07
193,48.29905181285011,5.124355310657936e-07
194,48.43506041766452,1.3549586884311347e-06
195,48.43515728755569,1.3549613983420866e-06
196,48.57116589237011,1.30868024923966e-06
197,48.707222932130115,1.4195781168605456e-06
198,48.84326636618613,1.3896844714479277e-06
199,48.97932340594613,1.2587733637700435e-06
200,49.11538044570613,1.1109191688100501e-06
201,49.251437485466134,1.072946170767608e-06
202,49.38748091952216,1.001988384275428e-06
203,49.52353795928216,8.20798346386075e-07
204,49.65959499904216,7.881855695531514e-07
205,49.79565203880216,7.948348196089348e-07
206,49.93169547285818,8.232770205230199e-07
207,50.06775251261818,5.540672040202817e-07
208,50.20380955237818,5.060525742697991e-07
209,50.33986659213818,6.03718260300432e-07
210,50.47591002619421,6.52793919462985e-07
211,50.61196706595421,3.715842113415412e-07
212,50.74802410571421,3.3904881772118906e-07
213,50.884081145474205,3.755009623278732e-07
214,51.02007355950089,7.717448070286999e-07
215,51.02017559955957,4.0996282538114236e-07
216,51.15618161929023,6.079585292384691e-07
217,51.29223865905023,5.450073879333845e-07
218,51.42829569881023,6.25674212172852e-07
219,51.56433913286626,5.244414317575725e-07
220,51.700396172626256,4.353950903216161e-07
221,51.83645321238625,3.868127763610893e-07
222,51.97251025214625,3.893553073625524e-07
223,52.10855368620228,3.4264714391680964e-07
224,52.24455848141958,5.075072541875013e-07
225,52.244662970504976,3.0013227971782404e-07
226,52.38066776572228,4.561629772281651e-07
227,52.516724805482276,5.577375863440911e-07
228,52.652768239538304,4.815097478353032e-07
229,52.7888252792983,4.009101570084804e-07
230,52.92482939423041,6.462429367997426e-07
231,52.924935243886196,6.462442292855796e-07
232,53.060939358818295,7.304604535791033e-07
233,53.19698279287432,6.281488962058919e-07
234,53.33303983263433,4.945262049009802e-07
235,53.469096872394324,5.701391932555623e-07
236,53.60515391215433,6.518219320721449e-07
237,53.74119734621035,5.321428795376658e-07
238,53.877254385970346,3.974773844672821e-07
239,54.01331142573034,4.832036252874459e-07
240,54.14936846549035,5.845047172836211e-07
241,54.285411899546375,4.5234506809712614e-07
242,54.55752597906638,2.7047617539368256e-07
243,61.36021469861866,4.567656855485047e-08
244,68.16288981246697,3.7443403084253275e-08
245,74.96557853201926,4.0215588681233555e-08
246,81.76825364586757,3.8631657192441364e-08
247,88.57094236541987,4.188265128337842e-08
248,95.37363108497215,4.3008135372205465e-08
249,102.17630619882047,4.317339015021694e-08
250,108.97899491837275,4.4905348028557434e-08
251,115.78168363792504,4.6654053128108e-08
252,122.58435875177334,4.8640883169290524e-08
253,129.38704747132562,5.06929810382544e-08
254,136.05367915111793,5.286068167378035e-08
255,136.1897361908779,5.2905833867434914e-08
256,204.0805119238249,7.698278734846144e-08
257,272.10735830223587,1.018072204623552e-07
258,340.1341910749428,1.446622834213359e-07
259,408.1610238476498,1.826034188089357e-07
260,476.18787022606074,2.1355047029451284e-07
261,544.2147029987677,2.394896838719856e-07
262,612.2415493771787,2.676929545015636e-07
263,680.2683821498856,3.0057584638285934e-07
264,748.2952149225927,3.3114765136457865e-07
265,816.3220613010035,3.598076717024508e-07
266,884.3488940737104,3.8693017410143964e-07
267,952.3757404521215,4.1280481447957696e-07
268,1020.4025732248285,4.376523728504986e-07
269,1088.4294196032395,4.6164111628270786e-07
270,1156.4562523759464,4.849001725963005e-07
271,1224.4830851486533,5.07529752169048e-07
272,1292.5099315270643,5.296086078546222e-07
273,1360.5367642997712,5.5119944570079e-07
274,1496.590443450889,5.931103670825214e-07
275,1632.644122602007,6.335689218377826e-07
276,1768.697801753125,6.727894261360209e-07
277,1904.7514672985392,7.109284382274176e-07
278,2040.805146449657,7.481047030884889e-07
279,2176.8588256007747,7.844111667072031e-07
280,2312.912504751893,8.199225716361372e-07
281,2448.966183903011,8.54700387611029e-07
282,2585.0198630541286,8.887961365785001e-07
283,2721.0735285995424,9.222536946352388e-07
284,2857.1272077506605,9.55110956352658e-07
285,2993.180886901778,9.874010067186902e-07
286,3129.2345660528963,1.019153037078204e-06
287,3265.288245204014,1.050393022842618e-06
288,3401.3419107494283,1.0811442481228775e-06
289,3537.3955899005464,1.1114277396829199e-06
290,3673.4492690516645,1.1412625719084761e-06
291,3809.502948202782,1.1706661553769439e-06
292,3945.5566273539002,1.1996544503781183e-06
293,4081.610306505018,1.228242150277918e-06
294,4217.663972050432,1.256442829242317e-06
295,4353.717651201549,1.284269085910672e-06
296,4489.771330352668,1.3117326274679492e-06
297,4625.825009503786,1.3388443803504572e-06
298,4761.878688654903,1.3656145641916e-06
299,4897.932354200318,1.3920527579155897e-06
300,5033.986033351435,1.41816797619855e-06
301,5170.039712502553,1.44396869753236e-06
302,5306.0933916536715,1.4694629270856155e-06
303,5442.147070804789,1.4946582339975885e-06
304,5578.200749955907,1.519561785960393e-06
305,5714.254415501321,1.5441803802368335e-06
306,5850.308094652439,1.5685204859315452e-06
307,5986.361773803556,1.592588247542267e-06
308,6122.415452954675,1.6163895237561405e-06
309,6258.469132105793,1.6399299044087205e-06
310,6394.522797651206,1.6632147252780423e-06
311,6530.576476802325,1.6862491011530648e-06
312,6666.630155953442,1.7090379183505532e-06
313,6802.68383510456,1.7315858640992014e-06
314,6938.737514255678,1.7538974367284893e-06
315,7074.791179801093,1.7759769522973126e-06
316,7210.8448589522095,1.7978285702684858e-06
317,7346.898538103329,1.8194562834013086e-06
318,7482.952217254446,1.8408639403127797e-06
319,7619.005896405564,1.8620552503779942e-06
320,7755.059575556682,1.8830337914797964e-06
321,7891.113241102096,1.903803014169204e-06
322,8027.166920253213,1.9243662626646997e-06
323,8163.220599404332,1.9447267587126927e-06
324,8299.27427855545,1.9648876240403844e-06
325,8435.327957706568,1.984851878414259e-06
326,8571.38162325198,2.0046224461538912e-06
327,8707.435302403099,2.024202169029775e-06
328,8843.488981554217,2.043593794613149e-06
329,8979.542660705336,2.0627999926844877e-06
330,9115.596339856453,2.0818233535506434e-06
331,9251.650019007571,2.100666395665113e-06
332,9387.703684552984,2.1193315626199715e-06
333,9523.757363704102,2.137821238889258e-06
334,9659.81104285522,2.156137736480099e-06
335,9795.86472200634,2.1742833082660557e-06
336,9931.918401157456,2.192260148640509e-06
337,10067.97206670287,2.2100703906342275e-06
338,10204.025745853987,2.2277161239404768e-06
339,10340.079425005106,2.2451993769498437e-06
340,10476.133104156224,2.2625221296912497e-06
341,10612.186783307343,2.2796863154441904e-06
342,10748.24046245846,2.296693821857968e-06
343,10884.294128003874,2.313546488194792e-06
344,11020.34780715499,2.3302461203445257e-06
345,11156.40148630611,2.3467944749536306e-06
346,11292.455165457228,2.3631932716787113e-06
347,11428.508844608346,2.379444191661586e-06
348,11564.562510153759,2.3955488774502056e-06
349,11700.616189304877,2.4115089440280943e-06
350,11836.669868455994,2.4273259646326987e-06
351,11972.723547607113,2.443001481284797e-06
352,12108.777226758231,2.4585370048253686e-06
353,12244.83090590935,2.4739340153588057e-06
354,12380.884571454762,2.489193960880066e-06
355,12516.938250605881,2.5043182676838035e-06
356,12652.991929756998,2.5193083277718054e-06
357,12789.045608908116,2.534165507796523e-06
358,12925.099288059235,2.548891148703924e-06
359,13061.15295360465,2.563486562998631e-06
360,13197.206632755768,2.5779530487623763e-06
361,13333.260311906884,2.592291869110139e-06
362,13469.313991058003,2.6065042701273467e-06
363,13605.36767020912,2.6205914740353765e-06
364,16326.441198808663,2.8777542059873914e-06
365,19047.514727408205,3.0932707582533794e-06
366,21768.58826961345,3.2732923223097256e-06
367,24489.661798212994,3.422646396136657e-06
368,27210.735326812537,3.545254213734692e-06
369,29931.808869017783,3.644380941256693e-06
370,32652.882397617326,3.722796097635229e-06
371,35373.95592621687,3.7828820523513018e-06
372,38095.029468422115,3.826710606196537e-06
373,40816.10299702166,3.8560990135259185e-06
374,43537.1765392269,3.872652302748754e-06
375,46258.25006782645,3.877796130772142e-06
376,48979.32359642599,3.87280292065619e-06
377,51700.39713863123,3.858813404504385e-06
378,54421.47066723078,3.83685500287312e-06
379,57142.54419583032,3.8078581304576675e-06
380,59863.617738035566,3.772671332041303e-06
381,62584.691266635105,3.732075715231348e-06
382,65305.76479523465,3.686799115806637e-06
383,68026.8383374399,3.6375300468319573e-06
384,70747.91186603945,3.5849324720612725e-06
385,73468.98539463898,3.5296593010485095e-06
386,76190.05893684423,3.4723631345261704e-06
387,78911.13246544376,3.413714534046121e-06
388,81632.20599404332,3.354409945747533e-06
389,84353.27953624855,3.295176440837942e-06
390,87074.35306484811,3.236796929113448e-06
391,89795.42659344764,3.1800943170495687e-06
392,92516.5001356529,3.125915501275919e-06
393,95237.57366425243,3.0743097479236e-06
394,97958.64719285197,3.0250067405537805e-06
395,100679.72073505721,2.9778438792126092e-06
396,103400.79426365678,2.9326740444587464e-06
397,106121.86779225631,2.889363766345347e-06
398,108842.94133446156,2.847791640954402e-06
399,111564.0148630611,2.807846975150665e-06
400,114285.08839166064,2.7694286049814335e-06
401,117006.16193386588,2.7324438740887894e-06
402,119727.23546246543,2.6968077374386434e-06
403,122448.30900467066,2.6624419841708075e-06
404,125169.38253327021,2.6292745461836462e-06
405,127890.45606186974,2.597238897794681e-06
406,130611.529604075,2.5662735232402568e-06
407,133332.60313267456,2.5363214412814427e-06
408,136053.6766612741,2.507329789276918e-06
409,138774.75020347934,2.479249448460506e-06
410,141495.8237320789,2.4520347135489443e-06
411,144216.89726067844,2.4256429927089676e-06
412,146937.97080288368,2.400034544011726e-06
413,149659.04433148322,2.3751722345439387e-06
414,156461.72816658777,2.316058227388922e-06
415,163264.4120016923,2.260910418209223e-06
416,170067.0958367969,2.209313270142675e-06
417,176869.77965829574,2.160909212986533e-06
418,183672.4634934003,2.1153886965520857e-06
419,190475.14732850486,2.0724822424119556e-06
420,197277.83116360943,2.031954047796817e-06
421,204080.51499871397,1.9935967843688494e-06
422,210883.19883381855,1.957227348169682e-06
423,217685.88266892312,1.9226833568631533e-06
424,224488.56649042197,1.88982024146137e-06
425,231291.25032552652,1.8585088251211895e-06
426,238093.93416063106,1.8286332875696776e-06
427,244896.61799573564,1.8000894501002315e-06
428,251699.30183084018,1.772783319173291e-06
429,258501.98566594475,1.7466298494679898e-06
430,265304.6695010493,1.7215518824567603e-06
431,272107.3533225482,1.6974792339729518e-06
432,278910.0371576527,1.6743479103455112e-06
433,285712.7209927573,1.6520994249740342e-06
434,292515.4048278619,1.6306802085299592e-06
435,299318.08866296645,1.6100410918331095e-06
436,306120.77249807096,1.5901368538233505e-06
437,312923.45633317553,1.5709258270217762e-06
438,319726.1401682801,1.5523695457216243e-06
439,326528.82398977893,1.534432440048289e-06
440,333331.50782488356,1.517081562099427e-06
441,340134.1916599881,1.500286344203955e-06
442,346936.87549509265,1.4840183837803714e-06
443,353739.5593301972,1.4682512504477844e-06
444,360542.24316530174,1.4529603142204807e-06
445,367344.9270004063,1.4381225928265448e-06
446,374147.6108219052,1.42371661231954e-06
447,380950.2946570097,1.409722283025609e-06
448,387752.9784921143,1.396120787699625e-06
