,E (eV),I (erg/s/cm**2)
0,1.360543186192048,0.0007163416662553636
1,2.0408011735840956,0.0008636172988561405
2,2.7210727666801198,0.0008435560503551434
3,3.401344359776144,0.0006901482788389581
4,4.081615952872168,0.0007971980841471087
5,4.761873940264215,0.0009378845599547812
6,5.4421455333602395,0.0011206367183383469
7,6.122417126456264,0.0012733862519462011
8,6.802688719552288,0.0014296823135523812
9,7.482946706944335,0.0015466784839400444
10,8.16321830004036,0.0016976242503391973
11,8.843489893136384,0.0017953892411105331
12,9.523761486232408,0.001880553937261523
13,10.204019473624456,0.0009362893543812519
14,10.884291066720479,0.0007985408059130035
15,11.564562659816504,0.0006260945008897585
16,12.244834252912527,0.0004415378535504513
17,12.92510584600855,0.0002148559396241907
18,13.7414208731606,1.350086895490897e-05
19,14.421692466256623,1.25073361063268e-05
20,15.101964059352648,1.2018823826981621e-05
21,15.782222046744696,1.1311052060498859e-05
22,16.46249363984072,1.1442455054365608e-05
23,17.142765232936743,1.1304120253976834e-05
24,17.823036826032766,1.1042585354647219e-05
25,18.503294813424816,1.0884325434334679e-05
26,19.18356640652084,1.0983394748062825e-05
27,19.863837999616862,1.0825027701002005e-05
28,20.544109592712886,1.0864316298580438e-05
29,21.224367580104932,1.0526162452985655e-05
30,21.90463917320096,1.0219104633700169e-05
31,22.584910766296982,1.0046572568999363e-05
32,23.26518235939301,1.0574635350119328e-05
33,23.945440346785055,1.0154800882174963e-05
34,24.62571193988108,9.848764534670762e-06
35,25.305983532977105,9.551292686188183e-06
36,25.986255126073125,9.128424042337818e-06
37,26.66652671916915,8.988636283968476e-06
38,27.210741272505174,8.305198341725662e-06
39,27.3467847065612,8.966020196308764e-06
40,27.4828417463212,8.373438401283142e-06
41,27.618898786081196,8.671962422947617e-06
42,27.7549558258412,8.518016107347803e-06
43,27.89099925989722,8.538033751631996e-06
44,28.02705629965722,8.46574062884284e-06
45,28.16311333941722,8.31213280187226e-06
46,28.299170379177223,8.53472950384594e-06
47,28.435213813233247,8.426981114175912e-06
48,28.571270852993244,8.489436701173842e-06
49,28.70732789275325,8.138202550260907e-06
50,28.843384932513246,8.335839834132643e-06
51,28.97942836656927,8.440286648737743e-06
52,29.115485406329267,8.354725733674665e-06
53,29.25154244608927,8.225511111581303e-06
54,29.387599485849268,8.167851929716417e-06
55,29.523642919905292,7.757153566298274e-06
56,29.659699959665296,8.166721529355724e-06
57,29.795756999425294,8.142553145432986e-06
58,29.931814039185298,7.890536428448872e-06
59,30.067857473241315,7.93527150424371e-06
60,30.20391451300132,7.9502679203224e-06
61,30.339971552761316,7.885097634004553e-06
62,30.47602859252132,8.049224022928302e-06
63,30.612072026577344,7.638641429891598e-06
64,30.74812906633734,7.828985548274985e-06
65,30.884186106097346,7.780788668515814e-06
66,31.020243145857343,7.701217883181001e-06
67,31.156286579913367,7.88063976964062e-06
68,31.292343619673364,7.4332008962777964e-06
69,31.42840065943337,7.763138508901283e-06
70,31.564457699193365,7.68154459971613e-06
71,31.70050113324939,7.610080061726354e-06
72,31.836558173009394,7.994351728766087e-06
73,31.97261521276939,7.4674187864551015e-06
74,32.108672252529395,7.797041847977447e-06
75,32.244715686585415,7.91965111459405e-06
76,32.38077272634541,7.608238279671072e-06
77,32.51682976610541,7.731715725320813e-06
78,32.652886805865414,7.964760153606805e-06
79,32.78893023992144,7.801183624971496e-06
80,32.92498727968144,8.095980692312874e-06
81,33.06104431944144,8.004138531990388e-06
82,33.19710135920144,8.090199818094895e-06
83,33.33314479325746,8.400590105053447e-06
84,33.46920183301746,8.171420385893067e-06
85,33.60525887277746,8.326953383924976e-06
86,33.74131591253746,8.60139449835289e-06
87,33.87735934659349,8.182876490931897e-06
88,34.01341638635349,8.426490612381249e-06
89,34.14947342611349,8.632319760416372e-06
90,34.285530465873485,8.483759893924035e-06
91,34.421573899929506,8.810734999221168e-06
92,34.55763093968951,8.787457177802176e-06
93,34.69368797944951,8.834992584561334e-06
94,34.82974501920951,8.994804119451126e-06
95,34.96578845326554,9.2473791461395e-06
96,35.101845493025536,9.22289061338832e-06
97,35.23790253278553,9.387237606211812e-06
98,35.37395957254554,9.679228178829687e-06
99,35.51000300660156,9.675029234932043e-06
100,35.646060046361555,9.63123670941256e-06
101,35.78211708612156,1.0129304341748669e-05
102,35.918174125881556,1.0203732710733516e-05
103,36.054217559937584,1.0130238395691493e-05
104,36.19027459969758,1.0425431233951608e-05
105,36.326331639457585,1.0718566173667266e-05
106,36.46238867921758,1.0656134175753288e-05
107,36.59844571897758,1.0708275775894648e-05
108,36.73448915303361,1.1123464288065844e-05
109,36.870546192793604,1.1231996090639956e-05
110,37.00660323255361,1.1214397578487534e-05
111,37.142660272313606,1.172751883329554e-05
112,37.27870370636963,1.1829803906675805e-05
113,37.41476074612963,1.1855484278202652e-05
114,37.55081778588963,1.2237934363283913e-05
115,37.686874825649625,1.2466745986906952e-05
116,37.82291825970565,1.25877247140928e-05
117,37.958975299465656,1.271379815251603e-05
118,38.095032339225654,1.3154190613698267e-05
119,38.23108937898566,1.3146869565056146e-05
120,38.36713281304168,1.3257196633666832e-05
121,38.503189852801675,1.3793435064258437e-05
122,38.63924689256167,1.371171974312935e-05
123,38.77530393232168,1.3929820321018077e-05
124,38.911347366377704,1.4096850400329039e-05
125,39.0474044061377,1.4582933470596097e-05
126,39.183461445897706,1.4644071036366724e-05
127,39.3195184856577,1.4962498702792751e-05
128,39.45556191971372,1.5469569068139633e-05
129,39.59161895947372,1.5544155542469196e-05
130,39.727675999233725,1.5859102857963725e-05
131,39.86373303899372,1.64583058120268e-05
132,39.99977647304975,1.6613943045904356e-05
133,40.135833512809754,1.6795098566287318e-05
134,40.27189055256975,1.688784344318878e-05
135,40.407947592329755,1.736832512096757e-05
136,40.54399102638577,1.77265877031061e-05
137,40.68004806614577,1.805244697895211e-05
138,40.81610510590577,1.7829233906688423e-05
139,40.952162145665774,4.202330908437301e-06
140,41.0882055797218,4.22485489854185e-06
141,41.2242626194818,4.338669641254322e-06
142,41.3603196592418,4.069819373600726e-06
143,41.4963766990018,4.117305167082198e-06
144,41.63242013305782,4.149570273367105e-06
145,41.76847717281782,4.008737639461809e-06
146,41.90453421257782,3.871465717522199e-06
147,42.04059125233782,3.90478494998242e-06
148,42.17663468639385,3.877146066844666e-06
149,42.31269172615385,3.6594362987126052e-06
150,42.44874876591385,3.8073567919551413e-06
151,42.584805805673845,3.7850125065625163e-06
152,42.720849239729866,3.658731346720948e-06
153,42.85690627948987,3.6479900890261996e-06
154,42.99296331924987,3.749491688309545e-06
155,43.12902035900987,3.5571755243668086e-06
156,43.2650637930659,3.4815918786863925e-06
157,43.401120832825896,3.4572352492296886e-06
158,43.53717787258589,3.503307524667553e-06
159,43.67323491234589,3.1772321369429767e-06
160,43.80927834640192,3.3119630314656454e-06
161,43.945335386161915,3.2995424334254515e-06
162,44.08139242592192,3.134902428671112e-06
163,44.217449465681916,2.9750800319380523e-06
164,44.353492899737944,3.0385406077780928e-06
165,44.48954993949794,3.0298921912001697e-06
166,44.62560697925794,2.590996922104687e-06
167,44.761664019017935,2.7210103956958808e-06
168,44.89770745307396,2.851904248312023e-06
169,45.03376449283397,2.838413317015993e-06
170,45.169821532593964,2.3791819254707665e-06
171,45.30587857235397,2.531068684001213e-06
172,45.44192200640999,2.534536484135322e-06
173,45.577979046169986,2.400446490387548e-06
174,45.71403608592998,1.9801103293795355e-06
175,45.85009312568999,2.2021161730230806e-06
176,45.986136559746015,2.2809793736922884e-06
177,46.12219359950601,2.0900238664530346e-06
178,46.258250639266016,1.7804459985735666e-06
179,46.394307679026014,2.0058956749227233e-06
180,46.53035111308204,2.0401964094277376e-06
181,46.66640815284203,1.8228284277619506e-06
182,46.802465192602035,1.5834464429687637e-06
183,46.93852223236203,1.8177658831782475e-06
184,47.07456566641806,1.8010463386449753e-06
185,47.210622706178064,1.6298993198282324e-06
186,47.34667974593806,1.3751099175787404e-06
187,47.482736785698066,1.566794710032093e-06
188,47.618780219754086,1.5225949349907972e-06
189,47.75483725951408,1.3668090818183505e-06
190,47.89089429927408,1.1066372752513493e-06
191,48.026951339034085,1.2043969369548039e-06
192,48.16299477309011,1.218170410206788e-06
193,48.29905181285011,1.150412655235478e-06
194,48.43506041766452,1.8022105846331e-06
195,48.43515728755569,1.8022141890457237e-06
196,48.57116589237011,1.9492103360267198e-06
197,48.707222932130115,1.8432796878391218e-06
198,48.84326636618613,1.7362210953784219e-06
199,48.97932340594613,1.6993370973188856e-06
200,49.11538044570613,1.735809197979731e-06
201,49.251437485466134,1.603115845004813e-06
202,49.38748091952216,1.3978895658402841e-06
203,49.52353795928216,1.427859444560149e-06
204,49.65959499904216,1.461095372047654e-06
205,49.79565203880216,1.4762475954966568e-06
206,49.93169547285818,1.2351402721595073e-06
207,50.06775251261818,1.197156337259219e-06
208,50.20380955237818,1.1896098632596288e-06
209,50.33986659213818,1.2418163381033066e-06
210,50.47591002619421,1.0790208768369925e-06
211,50.61196706595421,1.0167055645018583e-06
212,50.74802410571421,1.0215823555236052e-06
213,50.884081145474205,1.0149728775615805e-06
214,51.02007355950089,9.801191823566753e-07
215,51.02017559955957,9.801211425933413e-07
216,51.15618161929023,1.2386156372825314e-06
217,51.29223865905023,1.2374676354066857e-06
218,51.42829569881023,1.239330974553973e-06
219,51.56433913286626,1.1837989899116972e-06
220,51.700396172626256,1.0510034607192858e-06
221,51.83645321238625,1.0632781498900797e-06
222,51.97251025214625,1.0444556385696952e-06
223,52.10855368620228,1.004305211386956e-06
224,52.24455848141958,1.0210372062785406e-06
225,52.244662970504976,1.0210392483523362e-06
226,52.38066776572228,1.1615112451592774e-06
227,52.516724805482276,1.1401009582632167e-06
228,52.652768239538304,1.1104669570320444e-06
229,52.7888252792983,1.119130967775146e-06
230,52.92482939423041,1.2912102372169433e-06
231,52.924935243886196,1.2912128196373445e-06
232,53.060939358818295,1.1844392625430112e-06
233,53.19698279287432,1.1641483197442426e-06
234,53.33303983263433,1.1647776281567784e-06
235,53.469096872394324,1.2144373046839577e-06
236,53.60515391215433,1.1343473341167672e-06
237,53.74119734621035,1.0244064636362824e-06
238,53.877254385970346,1.0270385510967835e-06
239,54.01331142573034,1.060565318491901e-06
240,54.14936846549035,1.1076436123416232e-06
241,54.285411899546375,9.816179281224321e-07
242,54.55752597906638,8.845659385931453e-07
243,61.36021469861866,2.0855098008719953e-07
244,68.16288981246697,1.861095884626169e-07
245,74.96557853201926,1.9234828491463917e-07
246,81.76825364586757,1.9155827648370094e-07
247,88.57094236541987,1.9888655580224214e-07
248,95.37363108497215,2.0169197999107996e-07
249,102.17630619882047,2.0261271749651443e-07
250,108.97899491837275,2.070130092494079e-07
251,115.78168363792504,2.111020535728658e-07
252,122.58435875177334,2.1585392574256595e-07
253,129.38704747132562,2.2079326468956993e-07
254,136.05367915111793,2.2591527027508056e-07
255,136.1897361908779,2.2602165344329974e-07
256,204.0805119238249,2.4162862377575736e-07
257,272.10735830223587,2.893954060479868e-07
258,340.1341910749428,3.698701947176152e-07
259,408.1610238476498,4.3096490175557333e-07
260,476.18787022606074,4.773601104206838e-07
261,544.2147029987677,5.184015681815566e-07
262,612.2415493771787,5.673790224417643e-07
263,680.2683821498856,6.254256216466953e-07
264,748.2952149225927,6.801861987833022e-07
265,816.3220613010035,7.322728690708918e-07
266,884.3488940737104,7.822131081210232e-07
267,952.3757404521215,8.303904612410207e-07
268,1020.4025732248285,8.770877987807172e-07
269,1088.4294196032395,9.225176648584039e-07
270,1156.4562523759464,9.668428380205962e-07
271,1224.4830851486533,1.0101904877170922e-06
272,1292.5099315270643,1.0526618042507836e-06
273,1360.5367642997712,1.0943386850226637e-06
274,1496.590443450889,1.1755676449405271e-06
275,1632.644122602007,1.2542971554474997e-06
276,1768.697801753125,1.330833817451093e-06
277,1904.7514672985392,1.405411195557227e-06
278,2040.805146449657,1.4782134081012933e-06
279,2176.8588256007747,1.5493895908853913e-06
280,2312.912504751893,1.6190633030025162e-06
281,2448.966183903011,1.6873387983489783e-06
282,2585.0198630541286,1.7543053864521042e-06
283,2721.0735285995424,1.8200405423441275e-06
284,2857.1272077506605,1.8846122378510635e-06
285,2993.180886901778,1.9480806073356284e-06
286,3129.2345660528963,2.010499309183962e-06
287,3265.288245204014,2.071916547869822e-06
288,3401.3419107494283,2.132375886388023e-06
289,3537.3955899005464,2.1919169394936223e-06
290,3673.4492690516645,2.2505758600572025e-06
291,3809.502948202782,2.3083858146003822e-06
292,3945.5566273539002,2.3653773462549383e-06
293,4081.610306505018,2.421578680943175e-06
294,4217.663972050432,2.477015981219892e-06
295,4353.717651201549,2.5317136037758082e-06
296,4489.771330352668,2.5856942403013027e-06
297,4625.825009503786,2.6389791169422718e-06
298,4761.878688654903,2.691588126737107e-06
299,4897.932354200318,2.7435399507790907e-06
300,5033.986033351435,2.7948521970309775e-06
301,5170.039712502553,2.845541449740354e-06
302,5306.0933916536715,2.89562338937196e-06
303,5442.147070804789,2.9451128578786225e-06
304,5578.200749955907,2.9940239265257214e-06
305,5714.254415501321,3.0423699503466155e-06
306,5850.308094652439,3.0901636520709453e-06
307,5986.361773803556,3.137417126477153e-06
308,6122.415452954675,3.184141912083162e-06
309,6258.469132105793,3.230349027255496e-06
310,6394.522797651206,3.2760489952543153e-06
311,6530.576476802325,3.3212519100541556e-06
312,6666.630155953442,3.3659674198457485e-06
313,6802.68383510456,3.4102047828632292e-06
314,6938.737514255678,3.4539728890938213e-06
315,7074.791179801093,3.497280274200343e-06
316,7210.8448589522095,3.5401351643965883e-06
317,7346.898538103329,3.5825454610833807e-06
318,7482.952217254446,3.6245187825799727e-06
319,7619.005896405564,3.666062473356343e-06
320,7755.059575556682,3.7071836222181914e-06
321,7891.113241102096,3.7478890649507533e-06
322,8027.166920253213,3.7881854301727696e-06
323,8163.220599404332,3.828079105293168e-06
324,8299.27427855545,3.8675762800482415e-06
325,8435.327957706568,3.906682946449922e-06
326,8571.38162325198,3.945404904685227e-06
327,8707.435302403099,3.983747794902836e-06
328,8843.488981554217,4.0217170717913225e-06
329,8979.542660705336,4.059318034216726e-06
330,9115.596339856453,4.09655582852655e-06
331,9251.650019007571,4.1334354543372506e-06
332,9387.703684552984,4.169961766176195e-06
333,9523.757363704102,4.206139503706081e-06
334,9659.81104285522,4.241973260742926e-06
335,9795.86472200634,4.27746751440373e-06
336,9931.918401157456,4.312626627464345e-06
337,10067.97206670287,4.347454841806137e-06
338,10204.025745853987,4.381956311930532e-06
339,10340.079425005106,4.4161350716450145e-06
340,10476.133104156224,4.449995060615977e-06
341,10612.186783307343,4.4835401266143085e-06
342,10748.24046245846,4.516774022581939e-06
343,10884.294128003874,4.549700409465065e-06
344,11020.34780715499,4.582322883810037e-06
345,11156.40148630611,4.6146449392115044e-06
346,11292.455165457228,4.646669999877099e-06
347,11428.508844608346,4.678401414566478e-06
348,11564.562510153759,4.709842453240629e-06
349,11700.616189304877,4.740996331968745e-06
350,11836.669868455994,4.771866182903491e-06
351,11972.723547607113,4.802455080496273e-06
352,12108.777226758231,4.832766032824822e-06
353,12244.83090590935,4.8628019901798675e-06
354,12380.884571454762,4.89256583460105e-06
355,12516.938250605881,4.922060412683447e-06
356,12652.991929756998,4.951288496257033e-06
357,12789.045608908116,4.980252808952591e-06
358,12925.099288059235,5.008956024427741e-06
359,13061.15295360465,5.0374007610392625e-06
360,13197.206632755768,5.065589603604038e-06
361,13333.260311906884,5.093525072294573e-06
362,13469.313991058003,5.121209652132023e-06
363,13605.36767020912,5.148645779535925e-06
364,16326.441198808663,5.6486051406675145e-06
365,19047.514727408205,6.0660141195617185e-06
366,21768.58826961345,6.41316102922588e-06
367,24489.661798212994,6.699695334159717e-06
368,27210.735326812537,6.933456382066322e-06
369,29931.808869017783,7.120970940255458e-06
370,32652.882397617326,7.267772734044776e-06
371,35373.95592621687,7.378618911115519e-06
372,38095.029468422115,7.457643173227024e-06
373,40816.10299702166,7.508468165991074e-06
374,43537.1765392269,7.534290694196895e-06
375,46258.25006782645,7.537948459909873e-06
376,48979.32359642599,7.521974123338217e-06
377,51700.39713863123,7.488640621609679e-06
378,54421.47066723078,7.440000419802531e-06
379,57142.54419583032,7.377920754193449e-06
380,59863.617738035566,7.304115312615761e-06
381,62584.691266635105,7.2201735275095514e-06
382,65305.76479523465,7.127588907209533e-06
383,68026.8383374399,7.0277822500499754e-06
384,70747.91186603945,6.922121254611244e-06
385,73468.98539463898,6.811947732677959e-06
386,76190.05893684423,6.698586814370278e-06
387,78911.13246544376,6.583351372677021e-06
388,81632.20599404332,6.467581104880784e-06
389,84353.27953624855,6.352609207540404e-06
390,87074.35306484811,6.239791629816234e-06
391,89795.42659344764,6.130525358898017e-06
392,92516.5001356529,6.026140147084163e-06
393,95237.57366425243,5.926692458998084e-06
394,97958.64719285197,5.831682247342795e-06
395,100679.72073505721,5.7407961801852184e-06
396,103400.79426365678,5.653750752879868e-06
397,106121.86779225631,5.570288764975816e-06
398,108842.94133446156,5.490176268640798e-06
399,111564.0148630611,5.413199954416061e-06
400,114285.08839166064,5.339164877961557e-06
401,117006.16193386588,5.267892485155605e-06
402,119727.23546246543,5.199218894744558e-06
403,122448.30900467066,5.1329933885221585e-06
404,125169.38253327021,5.069077089821082e-06
405,127890.45606186974,5.007341804032078e-06
406,130611.529604075,4.947668985490714e-06
407,133332.60313267456,4.889948830662527e-06
408,136053.6766612741,4.8340794708161165e-06
409,138774.75020347934,4.7799662544004075e-06
410,141495.8237320789,4.72752110149312e-06
411,144216.89726067844,4.6766619399403495e-06
412,146937.97080288368,4.6273121853292055e-06
413,149659.04433148322,4.579400279092292e-06
414,156461.72816658777,4.465482161144099e-06
415,163264.4120016923,4.359207124317791e-06
416,170067.0958367969,4.259774412739071e-06
417,176869.77965829574,4.166494973307046e-06
418,183672.4634934003,4.078772290266605e-06
419,190475.14732850486,3.996087067854118e-06
420,197277.83116360943,3.917984900589121e-06
421,204080.51499871397,3.844066259076504e-06
422,210883.19883381855,3.7739782939501157e-06
423,217685.88266892312,3.7074080840081654e-06
424,224488.56649042197,3.6440770402401505e-06
425,231291.25032552652,3.5837362303263694e-06
426,238093.93416063106,3.5261624626682715e-06
427,244896.61799573564,3.471154979567534e-06
428,251699.30183084018,3.418532650521538e-06
429,258501.98566594475,3.368131589222402e-06
430,265304.6695010493,3.3198031049287837e-06
431,272107.3533225482,3.273411949527742e-06
432,278910.0371576527,3.228834803743914e-06
433,285712.7209927573,3.185958959370149e-06
434,292515.4048278619,3.1446811863383273e-06
435,299318.08866296645,3.1049067316977884e-06
436,306120.77249807096,3.066548452147643e-06
437,312923.45633317553,3.029526050817999e-06
438,319726.1401682801,2.9937654028054175e-06
439,326528.82398977893,2.9591979620527778e-06
440,333331.50782488356,2.925760235682187e-06
441,340134.1916599881,2.8933933180887307e-06
442,346936.87549509265,2.8620424743224536e-06
443,353739.5593301972,2.8316567723515973e-06
444,360542.24316530174,2.8021887486099695e-06
445,367344.9270004063,2.7735941144432037e-06
446,374147.6108219052,2.7458314868631042e-06
447,380950.2946570097,2.7188621520253943e-06
448,387752.9784921143,2.692649848987937e-06
