,E (eV),I (erg/s/cm**2)
0,1.360543186192048,0.0006452307677336294
1,2.0408011735840956,0.0007823314555521593
2,2.7210727666801198,0.0007568194471512382
3,3.401344359776144,0.0006128283063767687
4,4.081615952872168,0.000710467017564419
5,4.761873940264215,0.0008148516059048207
6,5.4421455333602395,0.0009684212393359998
7,6.122417126456264,0.0011589076856048834
8,6.802688719552288,0.0013245541811518682
9,7.482946706944335,0.0014443246390656386
10,8.16321830004036,0.0016220615015021932
11,8.843489893136384,0.0017779405230344417
12,9.523761486232408,0.0018777775893291655
13,10.204019473624456,0.0009064910030779365
14,10.884291066720479,0.0007991938881387348
15,11.564562659816504,0.0006279474802700233
16,12.244834252912527,0.00044674219526792685
17,12.92510584600855,0.00017309943882113857
18,13.7414208731606,1.133651097070777e-05
19,14.421692466256623,1.0370670350378094e-05
20,15.101964059352648,9.756820718227177e-06
21,15.782222046744696,8.836509261717475e-06
22,16.46249363984072,9.366436164640824e-06
23,17.142765232936743,9.362099190418799e-06
24,17.823036826032766,9.200222176412183e-06
25,18.503294813424816,9.239406798560895e-06
26,19.18356640652084,8.549298252286182e-06
27,19.863837999616862,8.979178286013885e-06
28,20.544109592712886,9.309232888659114e-06
29,21.224367580104932,9.110447724818162e-06
30,21.90463917320096,8.75614518233004e-06
31,22.584910766296982,8.616167398219591e-06
32,23.26518235939301,9.221793702315177e-06
33,23.945440346785055,9.16972456284042e-06
34,24.62571193988108,8.67837945972453e-06
35,25.305983532977105,8.057198247973387e-06
36,25.986255126073125,7.98962020287102e-06
37,26.66652671916915,7.72922670634192e-06
38,27.210741272505174,7.4262597756500265e-06
39,27.3467847065612,7.728483742636146e-06
40,27.4828417463212,7.54150165699827e-06
41,27.618898786081196,7.412787276549446e-06
42,27.7549558258412,7.532383972083503e-06
43,27.89099925989722,7.339773105578133e-06
44,28.02705629965722,7.440051381793681e-06
45,28.16311333941722,7.265551081201973e-06
46,28.299170379177223,7.465855435086292e-06
47,28.435213813233247,7.41607093874717e-06
48,28.571270852993244,7.384344941634034e-06
49,28.70732789275325,7.419024706122884e-06
50,28.843384932513246,7.424934999643704e-06
51,28.97942836656927,7.519983612328839e-06
52,29.115485406329267,7.334718047689354e-06
53,29.25154244608927,7.294165134168231e-06
54,29.387599485849268,7.118476898661613e-06
55,29.523642919905292,6.8409240036594685e-06
56,29.659699959665296,6.916536565775161e-06
57,29.795756999425294,7.070932488563872e-06
58,29.931814039185298,6.8276721331214005e-06
59,30.067857473241315,7.168319463637599e-06
60,30.20391451300132,6.727229496845464e-06
61,30.339971552761316,6.8564116863285916e-06
62,30.47602859252132,6.597117543938452e-06
63,30.612072026577344,6.681340592810247e-06
64,30.74812906633734,6.665464715791961e-06
65,30.884186106097346,6.439505275750548e-06
66,31.020243145857343,6.789967606256517e-06
67,31.156286579913367,6.0837161063132595e-06
68,31.292343619673364,6.786917320850753e-06
69,31.42840065943337,6.032598070477834e-06
70,31.564457699193365,6.5245969257710345e-06
71,31.70050113324939,6.274743344369925e-06
72,31.836558173009394,6.274749340131909e-06
73,31.97261521276939,6.604620477683287e-06
74,32.108672252529395,6.11800396141921e-06
75,32.244715686585415,6.562656691918515e-06
76,32.38077272634541,6.164172443436133e-06
77,32.51682976610541,6.228644565657668e-06
78,32.652886805865414,6.617153459105441e-06
79,32.78893023992144,6.199183640375643e-06
80,32.92498727968144,6.7001206438033625e-06
81,33.06104431944144,6.504406933698243e-06
82,33.19710135920144,6.745338514297382e-06
83,33.33314479325746,6.569588259116412e-06
84,33.46920183301746,6.7293722269815114e-06
85,33.60525887277746,6.844071886490457e-06
86,33.74131591253746,6.618926750304229e-06
87,33.87735934659349,6.898615433231166e-06
88,34.01341638635349,6.506790294274516e-06
89,34.14947342611349,6.839232611300693e-06
90,34.285530465873485,6.89512311358741e-06
91,34.421573899929506,6.820213894531478e-06
92,34.55763093968951,7.258531656862226e-06
93,34.69368797944951,6.8342833878330534e-06
94,34.82974501920951,7.025474916335953e-06
95,34.96578845326554,7.592287031723963e-06
96,35.101845493025536,7.125480534210093e-06
97,35.23790253278553,7.552211107122067e-06
98,35.37395957254554,7.604991412178169e-06
99,35.51000300660156,7.48656152331087e-06
100,35.646060046361555,8.021820200431803e-06
101,35.78211708612156,7.885297710067763e-06
102,35.918174125881556,8.157631207873118e-06
103,36.054217559937584,8.060198245350636e-06
104,36.19027459969758,8.077875159420748e-06
105,36.326331639457585,8.79743741848741e-06
106,36.46238867921758,8.209146711870226e-06
107,36.59844571897758,8.670544069944569e-06
108,36.73448915303361,9.10478800007937e-06
109,36.870546192793604,8.518970191662467e-06
110,37.00660323255361,9.284289342321305e-06
111,37.142660272313606,9.347928545943316e-06
112,37.27870370636963,9.15067540514623e-06
113,37.41476074612963,9.894091720006958e-06
114,37.55081778588963,9.636529503242746e-06
115,37.686874825649625,1.0121382765574556e-05
116,37.82291825970565,1.0485211457228176e-05
117,37.958975299465656,1.0015093133281348e-05
118,38.095032339225654,1.0743772583154012e-05
119,38.23108937898566,1.0913723627043439e-05
120,38.36713281304168,1.0395738502203619e-05
121,38.503189852801675,1.1275268883579347e-05
122,38.63924689256167,1.1322346210026613e-05
123,38.77530393232168,1.1105657226614288e-05
124,38.911347366377704,1.2019131506768374e-05
125,39.0474044061377,1.201513580397357e-05
126,39.183461445897706,1.2517999184284598e-05
127,39.3195184856577,1.2912107715319738e-05
128,39.45556191971372,1.29652592351738e-05
129,39.59161895947372,1.3482949959223345e-05
130,39.727675999233725,1.3742598831887779e-05
131,39.86373303899372,1.394040626541743e-05
132,39.99977647304975,1.4747317812681846e-05
133,40.135833512809754,1.4832886506808454e-05
134,40.27189055256975,1.4960663382286265e-05
135,40.407947592329755,1.5652393639352175e-05
136,40.54399102638577,1.5980668136792667e-05
137,40.68004806614577,1.614449868738666e-05
138,40.81610510590577,1.6186700076511706e-05
139,40.952162145665774,3.876327402384961e-06
140,41.0882055797218,3.719273571638686e-06
141,41.2242626194818,3.907955874421583e-06
142,41.3603196592418,3.865839304926395e-06
143,41.4963766990018,3.641383717280759e-06
144,41.63242013305782,3.74516045556019e-06
145,41.76847717281782,3.7663659102193517e-06
146,41.90453421257782,3.4140464730281276e-06
147,42.04059125233782,3.5559356861432004e-06
148,42.17663468639385,3.4979452438978586e-06
149,42.31269172615385,3.344907087335749e-06
150,42.44874876591385,3.508423867198231e-06
151,42.584805805673845,3.4387148746857585e-06
152,42.720849239729866,3.3083887098310295e-06
153,42.85690627948987,3.456510375494488e-06
154,42.99296331924987,3.3825111815281136e-06
155,43.12902035900987,3.250859555767173e-06
156,43.2650637930659,3.3037451823031688e-06
157,43.401120832825896,3.2088725736015016e-06
158,43.53717787258589,3.083291329881769e-06
159,43.67323491234589,3.078986206255809e-06
160,43.80927834640192,3.0957040175412874e-06
161,43.945335386161915,2.855198566043772e-06
162,44.08139242592192,2.849160912240385e-06
163,44.217449465681916,2.8305053466499097e-06
164,44.353492899737944,2.650931857795194e-06
165,44.48954993949794,2.51825977861984e-06
166,44.62560697925794,2.482938911341828e-06
167,44.761664019017935,2.4959867687490335e-06
168,44.89770745307396,2.3936489674378048e-06
169,45.03376449283397,2.4431791492436836e-06
170,45.169821532593964,2.3677767184607e-06
171,45.30587857235397,2.0889244385925804e-06
172,45.44192200640999,2.0098881292680292e-06
173,45.577979046169986,1.999224601756871e-06
174,45.71403608592998,1.801448696719759e-06
175,45.85009312568999,1.7005636779640352e-06
176,45.986136559746015,1.6199778224649357e-06
177,46.12219359950601,1.6918935655055094e-06
178,46.258250639266016,1.5109972681214233e-06
179,46.394307679026014,1.4640605614301876e-06
180,46.53035111308204,1.4392547435994458e-06
181,46.66640815284203,1.408374754965727e-06
182,46.802465192602035,1.2820979703854995e-06
183,46.93852223236203,1.11403292033583e-06
184,47.07456566641806,1.2087025705145371e-06
185,47.210622706178064,1.185017961101471e-06
186,47.34667974593806,1.0307633041948773e-06
187,47.482736785698066,9.069942386469464e-07
188,47.618780219754086,8.847661396383489e-07
189,47.75483725951408,8.959553811912788e-07
190,47.89089429927408,4.731253404122373e-07
191,48.026951339034085,4.956443028063232e-07
192,48.16299477309011,5.954560125064707e-07
193,48.29905181285011,5.685340370259844e-07
194,48.43506041766452,1.4109567788684858e-06
195,48.43515728755569,1.4109596007753531e-06
196,48.57116589237011,1.3652718907576542e-06
197,48.707222932130115,1.4640926185412828e-06
198,48.84326636618613,1.4557072687705488e-06
199,48.97932340594613,1.152983107836406e-06
200,49.11538044570613,1.1575963193478619e-06
201,49.251437485466134,1.1366650829005686e-06
202,49.38748091952216,1.061039485741323e-06
203,49.52353795928216,8.678022859807051e-07
204,49.65959499904216,8.267991434784575e-07
205,49.79565203880216,8.649384511328978e-07
206,49.93169547285818,8.802691460852952e-07
207,50.06775251261818,6.032126363635124e-07
208,50.20380955237818,5.613971015030697e-07
209,50.33986659213818,6.661341299795736e-07
210,50.47591002619421,7.059571069393075e-07
211,50.61196706595421,4.248069491558897e-07
212,50.74802410571421,3.952919151873746e-07
213,50.884081145474205,4.356700071844945e-07
214,51.02007355950089,8.185878354288802e-07
215,51.02017559955957,4.580141563590939e-07
216,51.15618161929023,6.659144045076404e-07
217,51.29223865905023,6.197374430361856e-07
218,51.42829569881023,6.972538285925889e-07
219,51.56433913286626,5.816836659065916e-07
220,51.700396172626256,4.940896489923383e-07
221,51.83645321238625,4.317883336776499e-07
222,51.97251025214625,4.6202758729922704e-07
223,52.10855368620228,4.007118038960145e-07
224,52.24455848141958,5.541839123866319e-07
225,52.244662970504976,3.491772080468446e-07
226,52.38066776572228,5.413532851213368e-07
227,52.516724805482276,6.232222016017246e-07
228,52.652768239538304,5.406339030530545e-07
229,52.7888252792983,4.43025708295229e-07
230,52.92482939423041,7.246589192281664e-07
231,52.924935243886196,7.246603685459637e-07
232,53.060939358818295,7.708227342387918e-07
233,53.19698279287432,6.694125726644697e-07
234,53.33303983263433,5.557697694596295e-07
235,53.469096872394324,6.363806885331459e-07
236,53.60515391215433,6.948561887607304e-07
237,53.74119734621035,5.761128099682181e-07
238,53.877254385970346,4.5573242601467186e-07
239,54.01331142573034,5.358957433929027e-07
240,54.14936846549035,6.31507797307699e-07
241,54.285411899546375,5.006258765981767e-07
242,54.55752597906638,3.234955913870166e-07
243,61.36021469861866,5.71695744717164e-08
244,68.16288981246697,4.7571394285432894e-08
245,74.96557853201926,5.0764527673209726e-08
246,81.76825364586757,4.913322837781262e-08
247,88.57094236541987,5.284350280070072e-08
248,95.37363108497215,5.4229090708646985e-08
249,102.17630619882047,5.4490233880190103e-08
250,108.97899491837275,5.655637226636862e-08
251,115.78168363792504,5.860867431712658e-08
252,122.58435875177334,6.095335181467823e-08
253,129.38704747132562,6.337334960071741e-08
254,136.05367915111793,6.591722905466207e-08
255,136.1897361908779,6.59697795402835e-08
256,204.0805119238249,9.269872867779048e-08
257,272.10735830223587,1.198688214903602e-07
258,340.1341910749428,1.6777631697517817e-07
259,408.1610238476498,2.0919259942269532e-07
260,476.18787022606074,2.4248546703360033e-07
261,544.2147029987677,2.7042346432186895e-07
262,612.2415493771787,3.0116730764908957e-07
263,680.2683821498856,3.37101348558015e-07
264,748.2952149225927,3.7056424883698074e-07
265,816.3220613010035,4.019946871528549e-07
266,884.3488940737104,4.3179480909024607e-07
267,952.3757404521215,4.6027190573540756e-07
268,1020.4025732248285,4.876584820160644e-07
269,1088.4294196032395,5.14131017487232e-07
270,1156.4562523759464,5.398246731785809e-07
271,1224.4830851486533,5.648442889568957e-07
272,1292.5099315270643,5.892722976159857e-07
273,1360.5367642997712,6.131744174716308e-07
274,1496.590443450889,6.596040344195449e-07
275,1632.644122602007,7.044558347123797e-07
276,1768.697801753125,7.479566754520334e-07
277,1904.7514672985392,7.902731628178796e-07
278,2040.805146449657,8.315323212947192e-07
279,2176.8588256007747,8.718340590703196e-07
280,2312.912504751893,9.112590684661204e-07
281,2448.966183903011,9.498739689601566e-07
282,2585.0198630541286,9.877347865519128e-07
283,2721.0735285995424,1.0248893728551968e-06
284,2857.1272077506605,1.061379158367516e-06
285,2993.180886901778,1.0972403941387796e-06
286,3129.2345660528963,1.1325051233905769e-06
287,3265.288245204014,1.1672019042491837e-06
288,3401.3419107494283,1.2013563706449402e-06
289,3537.3955899005464,1.234991698072688e-06
290,3673.4492690516645,1.2681289325807725e-06
291,3809.502948202782,1.3007872994616906e-06
292,3945.5566273539002,1.3329844368070626e-06
293,4081.610306505018,1.3647365935830292e-06
294,4217.663972050432,1.3960587882432468e-06
295,4353.717651201549,1.4269649683707284e-06
296,4489.771330352668,1.4574681003915473e-06
297,4625.825009503786,1.4875802899172436e-06
298,4761.878688654903,1.51731286331479e-06
299,4897.932354200318,1.5466764412576729e-06
300,5033.986033351435,1.575681020669036e-06
301,5170.039712502553,1.604336006056001e-06
302,5306.0933916536715,1.6326502793917885e-06
303,5442.147070804789,1.6606322399523306e-06
304,5578.200749955907,1.6882898439937368e-06
305,5714.254415501321,1.7156306365758832e-06
306,5850.308094652439,1.7426618003854207e-06
307,5986.361773803556,1.7693901580105073e-06
308,6122.415452954675,1.7958222160725655e-06
309,6258.469132105793,1.821964182643157e-06
310,6394.522797651206,1.847821985507702e-06
311,6530.576476802325,1.8734013056919074e-06
312,6666.630155953442,1.8987075722054034e-06
313,6802.68383510456,1.9237459935570675e-06
314,6938.737514255678,1.9485215669373903e-06
315,7074.791179801093,1.9730390891787966e-06
316,7210.8448589522095,1.997303182705375e-06
317,7346.898538103329,2.0213182847835142e-06
318,7482.952217254446,2.045088673568708e-06
319,7619.005896405564,2.0686184712615136e-06
320,7755.059575556682,2.0919116550817237e-06
321,7891.113241102096,2.114972061493489e-06
322,8027.166920253213,2.137803406641627e-06
323,8163.220599404332,2.1604092737968024e-06
324,8299.27427855545,2.1827931319542354e-06
325,8435.327957706568,2.204958340128864e-06
326,8571.38162325198,2.226908148623139e-06
327,8707.435302403099,2.248645717375894e-06
328,8843.488981554217,2.270174101532849e-06
329,8979.542660705336,2.2914962691513863e-06
330,9115.596339856453,2.3126151019737577e-06
331,9251.650019007571,2.3335333991571406e-06
332,9387.703684552984,2.354253878694442e-06
333,9523.757363704102,2.3747791922680076e-06
334,9659.81104285522,2.3951119115034085e-06
335,9795.86472200634,2.415254541694947e-06
336,9931.918401157456,2.435209521950236e-06
337,10067.97206670287,2.454979226468008e-06
338,10204.025745853987,2.474565979001887e-06
339,10340.079425005106,2.4939720345386555e-06
340,10476.133104156224,2.513199596547347e-06
341,10612.186783307343,2.532250815362395e-06
342,10748.24046245846,2.5511277893845973e-06
343,10884.294128003874,2.569832565528013e-06
344,11020.34780715499,2.5883671530062454e-06
345,11156.40148630611,2.6067335044825195e-06
346,11292.455165457228,2.624933533245938e-06
347,11428.508844608346,2.642969110364862e-06
348,11564.562510153759,2.6608420621706754e-06
349,11700.616189304877,2.6785541855318196e-06
350,11836.669868455994,2.6961072302817758e-06
351,11972.723547607113,2.713502911520326e-06
352,12108.777226758231,2.7307429115423906e-06
353,12244.83090590935,2.7478288759617746e-06
354,12380.884571454762,2.764762414655008e-06
355,12516.938250605881,2.7815451165270503e-06
356,12652.991929756998,2.7981785291789786e-06
357,12789.045608908116,2.814664172635129e-06
358,12925.099288059235,2.8310035396188506e-06
359,13061.15295360465,2.8471980905864904e-06
360,13197.206632755768,2.863249267960901e-06
361,13333.260311906884,2.87915847988929e-06
362,13469.313991058003,2.894927110295543e-06
363,13605.36767020912,2.9105565198575405e-06
364,16326.441198808663,3.195811166106468e-06
365,19047.514727408205,3.434761072005583e-06
366,21768.58826961345,3.634251856253605e-06
367,24489.661798212994,3.799656416737076e-06
368,27210.735326812537,3.935339127339194e-06
369,29931.808869017783,4.044934099883376e-06
370,32652.882397617326,4.1315236602308716e-06
371,35373.95592621687,4.197759061615666e-06
372,38095.029468422115,4.2459457211588615e-06
373,40816.10299702166,4.278105579221809e-06
374,43537.1765392269,4.296024269915319e-06
375,46258.25006782645,4.301287684294958e-06
376,48979.32359642599,4.295311187500256e-06
377,51700.39713863123,4.2793637370103e-06
378,54421.47066723078,4.254588496802444e-06
379,57142.54419583032,4.222021229051248e-06
380,59863.617738035566,4.182607246394224e-06
381,62584.691266635105,4.1372177168515394e-06
382,65305.76479523465,4.086665314461529e-06
383,68026.8383374399,4.031720053189547e-06
384,70747.91186603945,3.973124268808862e-06
385,73468.98539463898,3.9116068015152895e-06
386,76190.05893684423,3.847900299159537e-06
387,78911.13246544376,3.782747740880865e-06
388,81632.20599404332,3.7169200169430947e-06
389,84353.27953624855,3.6512272999042906e-06
390,87074.35306484811,3.5865170856556513e-06
391,89795.42659344764,3.5236904615077254e-06
392,92516.5001356529,3.4636620483869665e-06
393,95237.57366425243,3.4064831182890448e-06
394,97958.64719285197,3.351855614896676e-06
395,100679.72073505721,3.2995993787061754e-06
396,103400.79426365678,3.2495514033429206e-06
397,106121.86779225631,3.2015638030519685e-06
398,108842.94133446156,3.1555020664265173e-06
399,111564.0148630611,3.111243543680041e-06
400,114285.08839166064,3.0686761470274425e-06
401,117006.16193386588,3.027697213635113e-06
402,119727.23546246543,2.988212514024201e-06
403,122448.30900467066,2.950135390986134e-06
404,125169.38253327021,2.913385994163055e-06
405,127890.45606186974,2.877890613504163e-06
406,130611.529604075,2.8435810899508988e-06
407,133332.60313267456,2.8103942880517544e-06
408,136053.6766612741,2.7782716370701916e-06
409,138774.75020347934,2.7471587138195677e-06
410,141495.8237320789,2.717004875999359e-06
411,144216.89726067844,2.6877629335384695e-06
412,146937.97080288368,2.6593888521653443e-06
413,149659.04433148322,2.6318414890256926e-06
414,156461.72816658777,2.566343340363701e-06
415,163264.4120016923,2.505239717390218e-06
416,170067.0958367969,2.448070207934018e-06
417,176869.77965829574,2.394438626408909e-06
418,183672.4634934003,2.3440019929489432e-06
419,190475.14732850486,2.2964617278209428e-06
420,197277.83116360943,2.2515565618660883e-06
421,204080.51499871397,2.2090567772779873e-06
422,210883.19883381855,2.1687594963743923e-06
423,217685.88266892312,2.1304848000826557e-06
424,224488.56649042197,2.0940725066061804e-06
425,231291.25032552652,2.059379489186586e-06
426,238093.93416063106,2.026277418767373e-06
427,244896.61799573564,1.9946508666259883e-06
428,251699.30183084018,1.964395688753039e-06
429,258501.98566594475,1.9354176548965132e-06
430,265304.6695010493,1.9076312734383616e-06
431,272107.3533225482,1.880958781708298e-06
432,278910.0371576527,1.855329273946172e-06
433,285712.7209927573,1.8306779480019115e-06
434,292515.4048278619,1.806945449222105e-06
435,299318.08866296645,1.784077297938993e-06
436,306120.77249807096,1.7620233906722292e-06
437,312923.45633317553,1.7407375584670298e-06
438,319726.1401682801,1.7201771824058112e-06
439,326528.82398977893,1.700302850956391e-06
440,333331.50782488356,1.681078058537522e-06
441,340134.1916599881,1.6624689357093363e-06
442,346936.87549509265,1.6444440127513075e-06
443,353739.5593301972,1.6269740047728547e-06
444,360542.24316530174,1.6100316221125942e-06
445,367344.9270004063,1.5935914000453199e-06
446,374147.6108219052,1.5776295461917924e-06
447,380950.2946570097,1.562123800853576e-06
448,387752.9784921143,1.5470533145673262e-06
