,E (eV),I (erg/s/cm**2)
0,1.360543186192048,0.0006911811541270818
1,2.0408011735840956,0.0008348240694897848
2,2.7210727666801198,0.0008085090280348386
3,3.401344359776144,0.0006583011217514118
4,4.081615952872168,0.0007586957949726166
5,4.761873940264215,0.0008698846987657806
6,5.4421455333602395,0.0010580240719342872
7,6.122417126456264,0.0012253623338425508
8,6.802688719552288,0.0013803305024439126
9,7.482946706944335,0.001525305162421697
10,8.16321830004036,0.0016681446814355901
11,8.843489893136384,0.0018135597730191313
12,9.523761486232408,0.0018948627620535038
13,10.204019473624456,0.0009202927522914262
14,10.884291066720479,0.0008181413106036599
15,11.564562659816504,0.0006086984018543505
16,12.244834252912527,0.00038885528658856626
17,12.92510584600855,0.00018092443564800013
18,13.7414208731606,1.2381410288200208e-05
19,14.421692466256623,1.1437417103279093e-05
20,15.101964059352648,1.071131457815654e-05
21,15.782222046744696,1.0048348627058889e-05
22,16.46249363984072,1.0447481389873952e-05
23,17.142765232936743,1.0325508699149851e-05
24,17.823036826032766,1.008663047443343e-05
25,18.503294813424816,9.986313162045924e-06
26,19.18356640652084,9.573778108500715e-06
27,19.863837999616862,1.0219594183901222e-05
28,20.544109592712886,1.0023712493756923e-05
29,21.224367580104932,9.679295396131777e-06
30,21.90463917320096,9.422672427196395e-06
31,22.584910766296982,9.550636537540025e-06
32,23.26518235939301,9.909104134744384e-06
33,23.945440346785055,9.424143045218913e-06
34,24.62571193988108,9.273634839148021e-06
35,25.305983532977105,8.804495487846281e-06
36,25.986255126073125,8.81030021697002e-06
37,26.66652671916915,8.254266288159211e-06
38,27.210741272505174,7.878396394700768e-06
39,27.3467847065612,8.2792275689677e-06
40,27.4828417463212,7.963882935175624e-06
41,27.618898786081196,7.959520093328333e-06
42,27.7549558258412,8.078557903935646e-06
43,27.89099925989722,7.92970767919055e-06
44,28.02705629965722,8.059050759114643e-06
45,28.16311333941722,7.983817560716896e-06
46,28.299170379177223,7.976646961283758e-06
47,28.435213813233247,8.117949933303491e-06
48,28.571270852993244,7.733547873172672e-06
49,28.70732789275325,7.848291605912165e-06
50,28.843384932513246,7.637977377863362e-06
51,28.97942836656927,7.900513444637161e-06
52,29.115485406329267,7.698543631482051e-06
53,29.25154244608927,7.797708957013072e-06
54,29.387599485849268,7.800087866737962e-06
55,29.523642919905292,7.2265692299608476e-06
56,29.659699959665296,7.73519268592488e-06
57,29.795756999425294,7.201427790560397e-06
58,29.931814039185298,7.583420839557407e-06
59,30.067857473241315,7.318619376851234e-06
60,30.20391451300132,7.612064490308213e-06
61,30.339971552761316,7.195052600731186e-06
62,30.47602859252132,7.183332709780442e-06
63,30.612072026577344,7.27985407126206e-06
64,30.74812906633734,6.9926672822853464e-06
65,30.884186106097346,7.402916400931819e-06
66,31.020243145857343,6.935620309070115e-06
67,31.156286579913367,7.081999908494463e-06
68,31.292343619673364,7.038535568097916e-06
69,31.42840065943337,6.842387177427581e-06
70,31.564457699193365,7.2225920255638405e-06
71,31.70050113324939,6.810727889749956e-06
72,31.836558173009394,7.09618713050286e-06
73,31.97261521276939,6.917114483428456e-06
74,32.108672252529395,6.9025804926833775e-06
75,32.244715686585415,7.123004832416322e-06
76,32.38077272634541,6.963457816537393e-06
77,32.51682976610541,6.902280307664745e-06
78,32.652886805865414,7.239953242668001e-06
79,32.78893023992144,6.985941561654729e-06
80,32.92498727968144,7.133965937272265e-06
81,33.06104431944144,7.464574502401314e-06
82,33.19710135920144,7.206352962836668e-06
83,33.33314479325746,7.322939784998765e-06
84,33.46920183301746,7.4868286918838315e-06
85,33.60525887277746,7.296422499693994e-06
86,33.74131591253746,7.68250227627081e-06
87,33.87735934659349,7.30801506679721e-06
88,34.01341638635349,7.511458938153406e-06
89,34.14947342611349,7.671555116895104e-06
90,34.285530465873485,7.50781665003868e-06
91,34.421573899929506,7.99176345037796e-06
92,34.55763093968951,7.843676321068195e-06
93,34.69368797944951,7.840492503770586e-06
94,34.82974501920951,7.927311731679712e-06
95,34.96578845326554,8.309596240708095e-06
96,35.101845493025536,8.215980588207911e-06
97,35.23790253278553,8.16584322126031e-06
98,35.37395957254554,8.721753561804702e-06
99,35.51000300660156,8.562581978951512e-06
100,35.646060046361555,8.589433598165334e-06
101,35.78211708612156,9.156218448526688e-06
102,35.918174125881556,8.921003144215772e-06
103,36.054217559937584,8.892997316521367e-06
104,36.19027459969758,9.443261148141829e-06
105,36.326331639457585,9.37874394594989e-06
106,36.46238867921758,9.453240741947337e-06
107,36.59844571897758,9.692479579125544e-06
108,36.73448915303361,9.961645619008403e-06
109,36.870546192793604,9.987564748572678e-06
110,37.00660323255361,1.0144406012112494e-05
111,37.142660272313606,1.0476011605110466e-05
112,37.27870370636963,1.0611902048233437e-05
113,37.41476074612963,1.0699251892492335e-05
114,37.55081778588963,1.1021112475312821e-05
115,37.686874825649625,1.1271367783819117e-05
116,37.82291825970565,1.126792459668979e-05
117,37.958975299465656,1.1527917624982603e-05
118,38.095032339225654,1.1909398192652237e-05
119,38.23108937898566,1.1792844765346823e-05
120,38.36713281304168,1.2108631073372926e-05
121,38.503189852801675,1.2445274640010387e-05
122,38.63924689256167,1.234857145507106e-05
123,38.77530393232168,1.2814669962331324e-05
124,38.911347366377704,1.3184992916643075e-05
125,39.0474044061377,1.312427674883151e-05
126,39.183461445897706,1.3589854836098168e-05
127,39.3195184856577,1.4010427050043224e-05
128,39.45556191971372,1.4088394506243328e-05
129,39.59161895947372,1.4623072950558631e-05
130,39.727675999233725,1.4896390883581463e-05
131,39.86373303899372,1.5055039003729793e-05
132,39.99977647304975,1.57755081169256e-05
133,40.135833512809754,1.594946804992915e-05
134,40.27189055256975,1.6163871772564992e-05
135,40.407947592329755,1.6736934224120085e-05
136,40.54399102638577,1.7018175233395792e-05
137,40.68004806614577,1.729652812669326e-05
138,40.81610510590577,1.7209807749023034e-05
139,40.952162145665774,3.985570480031656e-06
140,41.0882055797218,4.018982618335489e-06
141,41.2242626194818,4.063657902151215e-06
142,41.3603196592418,3.962806322583749e-06
143,41.4963766990018,3.939724448111182e-06
144,41.63242013305782,3.846797722980897e-06
145,41.76847717281782,3.901484801538075e-06
146,41.90453421257782,3.7064290002759463e-06
147,42.04059125233782,3.632859092820067e-06
148,42.17663468639385,3.670196905767633e-06
149,42.31269172615385,3.6144531080612706e-06
150,42.44874876591385,3.559032559082179e-06
151,42.584805805673845,3.544466114870391e-06
152,42.720849239729866,3.593083052046367e-06
153,42.85690627948987,3.4993451008724183e-06
154,42.99296331924987,3.433257174784062e-06
155,43.12902035900987,3.4474182298299493e-06
156,43.2650637930659,3.4225021815305705e-06
157,43.401120832825896,3.2274915657887992e-06
158,43.53717787258589,3.2277443344691225e-06
159,43.67323491234589,3.2346048558536985e-06
160,43.80927834640192,3.123686721836357e-06
161,43.945335386161915,2.8934801352948365e-06
162,44.08139242592192,3.0277521075794926e-06
163,44.217449465681916,2.9238874377849896e-06
164,44.353492899737944,2.7505875520728047e-06
165,44.48954993949794,2.688095355709559e-06
166,44.62560697925794,2.7023580715393997e-06
167,44.761664019017935,2.53644595231093e-06
168,44.89770745307396,2.4529091804070325e-06
169,45.03376449283397,2.582126121443268e-06
170,45.169821532593964,2.4667078310771695e-06
171,45.30587857235397,2.2259259871618062e-06
172,45.44192200640999,2.1515597762653187e-06
173,45.577979046169986,2.2207795588206184e-06
174,45.71403608592998,1.944058180228286e-06
175,45.85009312568999,1.7236162810409161e-06
176,45.986136559746015,1.9031927918305283e-06
177,46.12219359950601,1.910763814947145e-06
178,46.258250639266016,1.6373701963587516e-06
179,46.394307679026014,1.53757295409559e-06
180,46.53035111308204,1.6542158765572388e-06
181,46.66640815284203,1.6512094724689249e-06
182,46.802465192602035,1.2001529088507675e-06
183,46.93852223236203,1.369516147969155e-06
184,47.07456566641806,1.454474118402104e-06
185,47.210622706178064,1.421397381726078e-06
186,47.34667974593806,9.802626363533717e-07
187,47.482736785698066,1.1340013254457313e-06
188,47.618780219754086,1.1577191533936186e-06
189,47.75483725951408,1.1054313940973802e-06
190,47.89089429927408,6.929664755022966e-07
191,48.026951339034085,7.495156510748011e-07
192,48.16299477309011,8.65535948278888e-07
193,48.29905181285011,8.279287502768751e-07
194,48.43506041766452,1.455878794626272e-06
195,48.43515728755569,1.4558817063769579e-06
196,48.57116589237011,1.567224131152823e-06
197,48.707222932130115,1.7131519209906351e-06
198,48.84326636618613,1.4849030919690741e-06
199,48.97932340594613,1.3341924642870655e-06
200,49.11538044570613,1.3746773092068134e-06
201,49.251437485466134,1.4239179800039237e-06
202,49.38748091952216,1.109273406760201e-06
203,49.52353795928216,1.0575362260539775e-06
204,49.65959499904216,1.0897071867945662e-06
205,49.79565203880216,1.1459970158656069e-06
206,49.93169547285818,9.2130878591756e-07
207,50.06775251261818,8.145033176955744e-07
208,50.20380955237818,8.312953581054131e-07
209,50.33986659213818,9.201184540960719e-07
210,50.47591002619421,7.353193709044578e-07
211,50.61196706595421,6.433816056071953e-07
212,50.74802410571421,6.616506968163422e-07
213,50.884081145474205,6.82672790904117e-07
214,51.02007355950089,6.614691975910472e-07
215,51.02017559955957,6.61470520528296e-07
216,51.15618161929023,8.668754778044794e-07
217,51.29223865905023,9.079802007193262e-07
218,51.42829569881023,9.302617060885011e-07
219,51.56433913286626,8.010832911028958e-07
220,51.700396172626256,6.817410826479671e-07
221,51.83645321238625,7.292762734999646e-07
222,51.97251025214625,7.084037904629856e-07
223,52.10855368620228,6.259827619738261e-07
224,52.24455848141958,6.189978292874844e-07
225,52.244662970504976,6.18999067282769e-07
226,52.38066776572228,8.665072673588966e-07
227,52.516724805482276,8.471887867750683e-07
228,52.652768239538304,7.54287012419054e-07
229,52.7888252792983,7.323541546974637e-07
230,52.92482939423041,1.0077525014781044e-06
231,52.924935243886196,1.0077545169830502e-06
232,53.060939358818295,9.396147931498448e-07
233,53.19698279287432,8.46885657227371e-07
234,53.33303983263433,8.141555942701228e-07
235,53.469096872394324,8.870243628946417e-07
236,53.60515391215433,8.746244250473139e-07
237,53.74119734621035,7.583425047001714e-07
238,53.877254385970346,6.925849245481672e-07
239,54.01331142573034,7.519978814155676e-07
240,54.14936846549035,8.261783873038054e-07
241,54.285411899546375,6.983670960894393e-07
242,54.55752597906638,5.488318573319436e-07
243,61.36021469861866,1.1116059797785865e-07
244,68.16288981246697,9.605321910490868e-08
245,74.96557853201926,1.007729725959544e-07
246,81.76825364586757,9.920972778198941e-08
247,88.57094236541987,1.0464190413635662e-07
248,95.37363108497215,1.0687452226569448e-07
249,102.17630619882047,1.0753141590777952e-07
250,108.97899491837275,1.1083006525420912e-07
251,115.78168363792504,1.139267676267522e-07
252,122.58435875177334,1.1750455263784929e-07
253,129.38704747132562,1.2119002801910177e-07
254,136.05367915111793,1.2503080925929886e-07
255,136.1897361908779,1.251105579053455e-07
256,204.0805119238249,1.5342128041199414e-07
257,272.10735830223587,1.908313467802554e-07
258,340.1341910749428,2.550208173466627e-07
259,408.1610238476498,3.067953702948527e-07
260,476.18787022606074,3.4691629486767995e-07
261,544.2147029987677,3.811457728410283e-07
262,612.2415493771787,4.2034568849616226e-07
263,680.2683821498856,4.665233026942888e-07
264,748.2952149225927,5.097859247759927e-07
265,816.3220613010035,5.506760158098692e-07
266,884.3488940737104,5.896689372213012e-07
267,952.3757404521215,6.271170392641571e-07
268,1020.4025732248285,6.632824711361999e-07
269,1088.4294196032395,6.983625802690297e-07
270,1156.4562523759464,7.325081147790394e-07
271,1224.4830851486533,7.65836165174574e-07
272,1292.5099315270643,7.984391754542467e-07
273,1360.5367642997712,8.303912872523841e-07
274,1496.590443450889,8.925739966894061e-07
275,1632.644122602007,9.527552886101759e-07
276,1768.697801753125,1.011200664369138e-06
277,1904.7514672985392,1.0681085979542446e-06
278,2040.805146449657,1.1236329461811304e-06
279,2176.8588256007747,1.1778965448583615e-06
280,2312.912504751893,1.2309999201578246e-06
281,2448.966183903011,1.2830270187792667e-06
282,2585.0198630541286,1.334049133654998e-06
283,2721.0735285995424,1.3841276644008213e-06
284,2857.1272077506605,1.4333161521968757e-06
285,2993.180886901778,1.4816617262048266e-06
286,3129.2345660528963,1.5292062593778335e-06
287,3265.288245204014,1.575987234647794e-06
288,3401.3419107494283,1.6220384208679588e-06
289,3537.3955899005464,1.6673904474157802e-06
290,3673.4492690516645,1.7120712044151184e-06
291,3809.502948202782,1.7561062296879899e-06
292,3945.5566273539002,1.7995190008370606e-06
293,4081.610306505018,1.8423311849854762e-06
294,4217.663972050432,1.8845628398838642e-06
295,4353.717651201549,1.926232617920859e-06
296,4489.771330352668,1.967357879424211e-06
297,4625.825009503786,2.0079548500060715e-06
298,4761.878688654903,2.0480387258848452e-06
299,4897.932354200318,2.087623766237683e-06
300,5033.986033351435,2.1267234040559657e-06
301,5170.039712502553,2.1653502850992164e-06
302,5306.0933916536715,2.2035163585006714e-06
303,5442.147070804789,2.2412329306701217e-06
304,5578.200749955907,2.278510716064815e-06
305,5714.254415501321,2.315359881091625e-06
306,5850.308094652439,2.3517901065098105e-06
307,5986.361773803556,2.3878105920106524e-06
308,6122.415452954675,2.4234301145082474e-06
309,6258.469132105793,2.4586570490134253e-06
310,6394.522797651206,2.4934993960747247e-06
311,6530.576476802325,2.5279648259118644e-06
312,6666.630155953442,2.562060668279916e-06
313,6802.68383510456,2.5957939576336406e-06
314,6938.737514255678,2.62917144469748e-06
315,7074.791179801093,2.662199610942786e-06
316,7210.8448589522095,2.6948847038543995e-06
317,7346.898538103329,2.7272327201580835e-06
318,7482.952217254446,2.7592494423235803e-06
319,7619.005896405564,2.7909404449076373e-06
320,7755.059575556682,2.82231110637114e-06
321,7891.113241102096,2.8533666135385355e-06
322,8027.166920253213,2.884111994481272e-06
323,8163.220599404332,2.914552095818557e-06
324,8299.27427855545,2.9446916111579108e-06
325,8435.327957706568,2.9745350849653866e-06
326,8571.38162325198,3.0040869156836808e-06
327,8707.435302403099,3.0333513798774926e-06
328,8843.488981554217,3.062332612822093e-06
329,8979.542660705336,3.09103463243995e-06
330,9115.596339856453,3.1194613382392966e-06
331,9251.650019007571,3.1476165213710337e-06
332,9387.703684552984,3.175503860873619e-06
333,9523.757363704102,3.2031269487895412e-06
334,9659.81104285522,3.2304892650698046e-06
335,9795.86472200634,3.2575942034443562e-06
336,9931.918401157456,3.28444506876061e-06
337,10067.97206670287,3.311045075699172e-06
338,10204.025745853987,3.3373973712738296e-06
339,10340.079425005106,3.3635050109365574e-06
340,10476.133104156224,3.389370979570171e-06
341,10612.186783307343,3.4149981900730264e-06
342,10748.24046245846,3.4403894865719614e-06
343,10884.294128003874,3.4655476411021624e-06
344,11020.34780715499,3.4904753769417646e-06
345,11156.40148630611,3.5151753400482992e-06
346,11292.455165457228,3.539650123830306e-06
347,11428.508844608346,3.563902262060994e-06
348,11564.562510153759,3.5879342320176438e-06
349,11700.616189304877,3.6117484685694905e-06
350,11836.669868455994,3.635347343754232e-06
351,11972.723547607113,3.6587331817141777e-06
352,12108.777226758231,3.681908262970673e-06
353,12244.83090590935,3.70487481837702e-06
354,12380.884571454762,3.727635032112952e-06
355,12516.938250605881,3.7501910556051482e-06
356,12652.991929756998,3.7725449886752682e-06
357,12789.045608908116,3.79469889206539e-06
358,12925.099288059235,3.816654789520254e-06
359,13061.15295360465,3.8384146610964085e-06
360,13197.206632755768,3.859980463244463e-06
361,13333.260311906884,3.881354105153172e-06
362,13469.313991058003,3.902537464078217e-06
363,13605.36767020912,3.923532384880514e-06
364,16326.441198808663,4.306439785824452e-06
365,19047.514727408205,4.626701791374947e-06
366,21768.58826961345,4.893608792863927e-06
367,24489.661798212994,5.1144542617149855e-06
368,27210.735326812537,5.295163103933579e-06
369,29931.808869017783,5.4406685968514285e-06
370,32652.882397617326,5.5551542972858155e-06
371,35373.95592621687,5.642217784306864e-06
372,38095.029468422115,5.704986342607596e-06
373,40816.10299702166,5.7462017690378625e-06
374,43537.1765392269,5.7682845296947665e-06
375,46258.25006782645,5.7733836778451284e-06
376,48979.32359642599,5.763417044665928e-06
377,51700.39713863123,5.740104639745476e-06
378,54421.47066723078,5.70499748042542e-06
379,57142.54419583032,5.659503298634108e-06
380,59863.617738035566,5.60491044357443e-06
381,62584.691266635105,5.542409886594742e-06
382,65305.76479523465,5.4731169006189186e-06
383,68026.8383374399,5.398090829019792e-06
384,70747.91186603945,5.318354019658124e-06
385,73468.98539463898,5.234910046285343e-06
386,76190.05893684423,5.148757327615463e-06
387,78911.13246544376,5.06090308167396e-06
388,81632.20599404332,4.972382018653631e-06
389,84353.27953624855,4.884245950811937e-06
390,87074.35306484811,4.797595377584638e-06
391,89795.42659344764,4.7135683054504205e-06
392,92516.5001356529,4.633288118785547e-06
393,95237.57366425243,4.5568125563066754e-06
394,97958.64719285197,4.483749451103473e-06
395,100679.72073505721,4.413857844185696e-06
396,103400.79426365678,4.346919721809807e-06
397,106121.86779225631,4.28273729183777e-06
398,108842.94133446156,4.221130646309824e-06
399,111564.0148630611,4.161935748026768e-06
400,114285.08839166064,4.105002683391559e-06
401,117006.16193386588,4.05019414274036e-06
402,119727.23546246543,3.9973840978833786e-06
403,122448.30900467066,3.946456647553071e-06
404,125169.38253327021,3.897304993711738e-06
405,127890.45606186974,3.849830552761038e-06
406,130611.529604075,3.803942162843193e-06
407,133332.60313267456,3.7595553829459546e-06
408,136053.6766612741,3.716591876462068e-06
409,138774.75020347934,3.674978854123969e-06
410,141495.8237320789,3.634648582751388e-06
411,144216.89726067844,3.5955379473717825e-06
412,146937.97080288368,3.557588054696745e-06
413,149659.04433148322,3.520743875413591e-06
414,156461.72816658777,3.433141063966122e-06
415,163264.4120016923,3.3514158207787634e-06
416,170067.0958367969,3.2749523573336995e-06
417,176869.77965829574,3.2032207868763376e-06
418,183672.4634934003,3.1357623847394166e-06
419,190475.14732850486,3.072177807282822e-06
420,197277.83116360943,3.012117615476829e-06
421,204080.51499871397,2.9552745682954285e-06
422,210883.19883381855,2.90137732156121e-06
423,217685.88266892312,2.8501852378359342e-06
424,224488.56649042197,2.8014840798034977e-06
425,231291.25032552652,2.755082416898505e-06
426,238093.93416063106,2.7108086151729433e-06
427,244896.61799573564,2.6685082893323463e-06
428,251699.30183084018,2.6280421495004677e-06
429,258501.98566594475,2.58928416678436e-06
430,265304.6695010493,2.5521199967274533e-06
431,272107.3533225482,2.516445633716278e-06
432,278910.0371576527,2.482166243372779e-06
433,285712.7209927573,2.4491951544281554e-06
434,292515.4048278619,2.41745298063127e-06
435,299318.08866296645,2.386866858363656e-06
436,306120.77249807096,2.3573697733696185e-06
437,312923.45633317553,2.3288999772244676e-06
438,319726.1401682801,2.3014004670403495e-06
439,326528.82398977893,2.2748185315053007e-06
440,333331.50782488356,2.2491053439848395e-06
441,340134.1916599881,2.2242156063670146e-06
442,346936.87549509265,2.200107227629707e-06
443,353739.5593301972,2.1767410400644538e-06
444,360542.24316530174,2.154080544629956e-06
445,367344.9270004063,2.1320916821966217e-06
446,374147.6108219052,2.1107426309583176e-06
447,380950.2946570097,2.0900036191161634e-06
448,387752.9784921143,2.0698467615788185e-06
