,E (eV),I (erg/s/cm**2)
0,1.360543186192048,0.0006248193848979853
1,2.0408011735840956,0.0007690321841111541
2,2.7210727666801198,0.0007543565366155679
3,3.401344359776144,0.0006041752716720424
4,4.081615952872168,0.0006965645811498977
5,4.761873940264215,0.0008043372057863349
6,5.4421455333602395,0.0009151319515752795
7,6.122417126456264,0.0011423632541466082
8,6.802688719552288,0.0013124013836881031
9,7.482946706944335,0.001434836769005664
10,8.16321830004036,0.0016179875337450163
11,8.843489893136384,0.0017578470656032148
12,9.523761486232408,0.0018870595220321518
13,10.204019473624456,0.0009063095946567878
14,10.884291066720479,0.0008051355893414334
15,11.564562659816504,0.0006196816779489931
16,12.244834252912527,0.00044358460297438734
17,12.92510584600855,0.0001727259010484637
18,13.7414208731606,1.1174852844122941e-05
19,14.421692466256623,1.0182789197936717e-05
20,15.101964059352648,9.658363593673613e-06
21,15.782222046744696,8.627464059731666e-06
22,16.46249363984072,9.170545811029659e-06
23,17.142765232936743,9.166210255555977e-06
24,17.823036826032766,9.060970931798275e-06
25,18.503294813424816,9.038145806228433e-06
26,19.18356640652084,8.470622264435451e-06
27,19.863837999616862,8.749715849725993e-06
28,20.544109592712886,9.142968520140888e-06
29,21.224367580104932,9.009803122600094e-06
30,21.90463917320096,8.611213515669955e-06
31,22.584910766296982,8.475864587769557e-06
32,23.26518235939301,9.08095023399677e-06
33,23.945440346785055,8.967345440048674e-06
34,24.62571193988108,8.571066603699537e-06
35,25.305983532977105,7.960990435044697e-06
36,25.986255126073125,8.007062352330682e-06
37,26.66652671916915,7.829496413337038e-06
38,27.210741272505174,7.405708065482745e-06
39,27.3467847065612,7.541924265555169e-06
40,27.4828417463212,7.42032422277065e-06
41,27.618898786081196,7.2431387129215845e-06
42,27.7549558258412,7.4445093357489145e-06
43,27.89099925989722,7.212940754025337e-06
44,28.02705629965722,7.427389940812893e-06
45,28.16311333941722,7.151749820902858e-06
46,28.299170379177223,7.468645533080862e-06
47,28.435213813233247,7.350569879160364e-06
48,28.571270852993244,7.310332481956401e-06
49,28.70732789275325,7.340575676748941e-06
50,28.843384932513246,7.274554864218781e-06
51,28.97942836656927,7.387853973085701e-06
52,29.115485406329267,7.1595666317854805e-06
53,29.25154244608927,7.1588323750061005e-06
54,29.387599485849268,6.964431461823767e-06
55,29.523642919905292,6.683828463308502e-06
56,29.659699959665296,6.842456967168267e-06
57,29.795756999425294,6.907311165128239e-06
58,29.931814039185298,6.745725477922664e-06
59,30.067857473241315,7.003893282571037e-06
60,30.20391451300132,6.680774534049117e-06
61,30.339971552761316,6.6273773254722455e-06
62,30.47602859252132,6.6011605942762805e-06
63,30.612072026577344,6.446045855192617e-06
64,30.74812906633734,6.6942924324509325e-06
65,30.884186106097346,6.238004412798832e-06
66,31.020243145857343,6.723113101236019e-06
67,31.156286579913367,5.984979511426153e-06
68,31.292343619673364,6.651774787815586e-06
69,31.42840065943337,6.002190810032551e-06
70,31.564457699193365,6.3577456331090885e-06
71,31.70050113324939,6.293244326875175e-06
72,31.836558173009394,6.085563382646547e-06
73,31.97261521276939,6.534768769601116e-06
74,32.108672252529395,5.946414194066007e-06
75,32.244715686585415,6.396313462881971e-06
76,32.38077272634541,5.978608138096716e-06
77,32.51682976610541,6.064883996439101e-06
78,32.652886805865414,6.467033510122736e-06
79,32.78893023992144,6.093775812769249e-06
80,32.92498727968144,6.56442628915673e-06
81,33.06104431944144,6.396737073771955e-06
82,33.19710135920144,6.5521001759456215e-06
83,33.33314479325746,6.492272613165996e-06
84,33.46920183301746,6.5650343554271045e-06
85,33.60525887277746,6.705012971775993e-06
86,33.74131591253746,6.484552018974175e-06
87,33.87735934659349,6.701941159236675e-06
88,34.01341638635349,6.459908446805362e-06
89,34.14947342611349,6.60440764285942e-06
90,34.285530465873485,6.817501497086477e-06
91,34.421573899929506,6.703595377936622e-06
92,34.55763093968951,7.104339219822055e-06
93,34.69368797944951,6.709561169819729e-06
94,34.82974501920951,6.830187208565317e-06
95,34.96578845326554,7.3336231323988196e-06
96,35.101845493025536,6.929732715290533e-06
97,35.23790253278553,7.39860354970426e-06
98,35.37395957254554,7.58861649283065e-06
99,35.51000300660156,7.362191459050793e-06
100,35.646060046361555,7.89080719600927e-06
101,35.78211708612156,7.705079092431025e-06
102,35.918174125881556,7.750545228355061e-06
103,36.054217559937584,7.967326362502416e-06
104,36.19027459969758,7.92807206787097e-06
105,36.326331639457585,8.554585319541585e-06
106,36.46238867921758,8.15414635694683e-06
107,36.59844571897758,8.214927575813984e-06
108,36.73448915303361,8.943272131599866e-06
109,36.870546192793604,8.389709407487036e-06
110,37.00660323255361,9.010866921014368e-06
111,37.142660272313606,9.265861582961351e-06
112,37.27870370636963,8.911538453567092e-06
113,37.41476074612963,9.682038359157888e-06
114,37.55081778588963,9.53969320042553e-06
115,37.686874825649625,9.538630586853344e-06
116,37.82291825970565,1.0321477702305554e-05
117,37.958975299465656,9.832697211380206e-06
118,38.095032339225654,1.0498797385064949e-05
119,38.23108937898566,1.0731673683246398e-05
120,38.36713281304168,1.0198767768653556e-05
121,38.503189852801675,1.1049334997963865e-05
122,38.63924689256167,1.1152182068608956e-05
123,38.77530393232168,1.0868265658401659e-05
124,38.911347366377704,1.1756489868173822e-05
125,39.0474044061377,1.183741114230613e-05
126,39.183461445897706,1.1710786198400959e-05
127,39.3195184856577,1.2629408336266474e-05
128,39.45556191971372,1.270149771545158e-05
129,39.59161895947372,1.3229873843051363e-05
130,39.727675999233725,1.3533887871989076e-05
131,39.86373303899372,1.3693157336473097e-05
132,39.99977647304975,1.4468278267577322e-05
133,40.135833512809754,1.456408781094418e-05
134,40.27189055256975,1.4706341178873796e-05
135,40.407947592329755,1.545011950032263e-05
136,40.54399102638577,1.5764327389513042e-05
137,40.68004806614577,1.5883467390010426e-05
138,40.81610510590577,1.5823562936446485e-05
139,40.952162145665774,3.825369722254959e-06
140,41.0882055797218,3.7329916906324484e-06
141,41.2242626194818,3.820769797977523e-06
142,41.3603196592418,3.854648564287046e-06
143,41.4963766990018,3.617897801220573e-06
144,41.63242013305782,3.6531186909629787e-06
145,41.76847717281782,3.7640409738302445e-06
146,41.90453421257782,3.395169315872334e-06
147,42.04059125233782,3.4588001064697856e-06
148,42.17663468639385,3.531572895105971e-06
149,42.31269172615385,3.3204973656289002e-06
150,42.44874876591385,3.4151337181881055e-06
151,42.584805805673845,3.4825321236923104e-06
152,42.720849239729866,3.2965922529082978e-06
153,42.85690627948987,3.377500626506295e-06
154,42.99296331924987,3.4182611029182486e-06
155,43.12902035900987,3.243810863585321e-06
156,43.2650637930659,3.2298788240283197e-06
157,43.401120832825896,3.2545410387000976e-06
158,43.53717787258589,3.07169056964015e-06
159,43.67323491234589,3.018797057381257e-06
160,43.80927834640192,3.144239707794373e-06
161,43.945335386161915,2.8591682146061196e-06
162,44.08139242592192,2.7946414468228045e-06
163,44.217449465681916,2.8882540472115924e-06
164,44.353492899737944,2.6554509032335805e-06
165,44.48954993949794,2.4606475839467136e-06
166,44.62560697925794,2.560210648516568e-06
167,44.761664019017935,2.4921203441644836e-06
168,44.89770745307396,2.360899161004704e-06
169,45.03376449283397,2.4148183282025456e-06
170,45.169821532593964,2.355318863850416e-06
171,45.30587857235397,2.0767375582867707e-06
172,45.44192200640999,1.978727385752053e-06
173,45.577979046169986,1.9414354043396202e-06
174,45.71403608592998,1.7789862971995482e-06
175,45.85009312568999,1.674547319275403e-06
176,45.986136559746015,1.7316222897046003e-06
177,46.12219359950601,1.662198909094467e-06
178,46.258250639266016,1.4712025329054683e-06
179,46.394307679026014,1.44296671712878e-06
180,46.53035111308204,1.4000897553009732e-06
181,46.66640815284203,1.3797206462669315e-06
182,46.802465192602035,1.2741735921491129e-06
183,46.93852223236203,1.0772420395576384e-06
184,47.07456566641806,1.1839565668944035e-06
185,47.210622706178064,1.1458421104608505e-06
186,47.34667974593806,1.0145718017766558e-06
187,47.482736785698066,8.760661531420524e-07
188,47.618780219754086,8.496424280245312e-07
189,47.75483725951408,8.727650282541998e-07
190,47.89089429927408,4.396378015982092e-07
191,48.026951339034085,4.730290108702708e-07
192,48.16299477309011,5.615967775301266e-07
193,48.29905181285011,5.32386871136837e-07
194,48.43506041766452,1.3774297766556399e-06
195,48.43515728755569,1.3774325315086618e-06
196,48.57116589237011,1.3302118033589227e-06
197,48.707222932130115,1.4385651589225954e-06
198,48.84326636618613,1.4160949732728301e-06
199,48.97932340594613,1.2808074748039517e-06
200,49.11538044570613,1.128198015966809e-06
201,49.251437485466134,1.097481277823323e-06
202,49.38748091952216,1.0256441673747684e-06
203,49.52353795928216,8.390036666806731e-07
204,49.65959499904216,8.078989155025466e-07
205,49.79565203880216,8.224801009494782e-07
206,49.93169547285818,8.450740221634704e-07
207,50.06775251261818,5.727807064255556e-07
208,50.20380955237818,5.269607660078446e-07
209,50.33986659213818,6.270478284895867e-07
210,50.47591002619421,6.735432982547204e-07
211,50.61196706595421,3.9080666078559447e-07
212,50.74802410571421,3.5887367728483355e-07
213,50.884081145474205,3.9763737179659727e-07
214,51.02007355950089,4.279873621894588e-07
215,51.02017559955957,4.2798821816344136e-07
216,51.15618161929023,6.302077248534174e-07
217,51.29223865905023,5.731210489898679e-07
218,51.42829569881023,6.52322459761427e-07
219,51.56433913286626,5.463099489089554e-07
220,51.700396172626256,4.5659014350945954e-07
221,51.83645321238625,3.8861592638029274e-07
222,51.97251025214625,4.1798715400089595e-07
223,52.10855368620228,3.646490911553687e-07
224,52.24455848141958,3.2212636704687755e-07
225,52.244662970504976,3.22127011299417e-07
226,52.38066776572228,4.886598237063969e-07
227,52.516724805482276,5.847504737029067e-07
228,52.652768239538304,5.042864364940203e-07
229,52.7888252792983,4.021637769861743e-07
230,52.92482939423041,6.767600317851149e-07
231,52.924935243886196,6.7676138530514e-07
232,53.060939358818295,7.457954995680462e-07
233,53.19698279287432,6.438436660108416e-07
234,53.33303983263433,5.180540908275325e-07
235,53.469096872394324,5.957312927820794e-07
236,53.60515391215433,6.681855530141276e-07
237,53.74119734621035,5.488812939600845e-07
238,53.877254385970346,4.1964807392553175e-07
239,54.01331142573034,5.032249022409375e-07
240,54.14936846549035,6.02341456562822e-07
241,54.285411899546375,4.707030219073971e-07
242,54.55752597906638,2.904463600538027e-07
243,61.36021469861866,4.994396906886198e-08
244,68.16288981246697,4.1194429943519806e-08
245,74.96557853201926,4.41271065708831e-08
246,81.76825364586757,4.252237675595813e-08
247,88.57094236541987,4.594855145816428e-08
248,95.37363108497215,4.717283623818014e-08
249,102.17630619882047,4.737934626325027e-08
250,108.97899491837275,4.923785423919314e-08
251,115.78168363792504,5.110408289116331e-08
252,122.58435875177334,5.3228569399708725e-08
253,129.38704747132562,5.542293628231528e-08
254,136.05367915111793,5.773731750525724e-08
255,136.1897361908779,5.7785512600449125e-08
256,204.0805119238249,8.316732084441043e-08
257,272.10735830223587,1.0871279413373846e-07
258,340.1341910749428,1.5356121841961187e-07
259,408.1610238476498,1.9288861213942903e-07
260,476.18787022606074,2.2477643151170497e-07
261,544.2147029987677,2.515108645747721e-07
262,612.2415493771787,2.807145045758066e-07
263,680.2683821498856,3.1479680595666653e-07
264,748.2952149225927,3.465033854761023e-07
265,816.3220613010035,3.762494904080847e-07
266,884.3488940737104,4.044207082061438e-07
267,952.3757404521215,4.313138917887041e-07
268,1020.4025732248285,4.5715461847674255e-07
269,1088.4294196032395,4.821145171624447e-07
270,1156.4562523759464,5.06325182245127e-07
271,1224.4830851486533,5.298887120243777e-07
272,1292.5099315270643,5.528853550220179e-07
273,1360.5367642997712,5.753790377074616e-07
274,1496.590443450889,6.190547496128364e-07
275,1632.644122602007,6.612287963958446e-07
276,1768.697801753125,7.021205012002047e-07
277,1904.7514672985392,7.418904152683014e-07
278,2040.805146449657,7.806605613106698e-07
279,2176.8588256007747,8.18526634369406e-07
280,2312.912504751893,8.555657206236847e-07
281,2448.966183903011,8.918413146361606e-07
282,2585.0198630541286,9.274067075511747e-07
283,2721.0735285995424,9.623073349894385e-07
284,2857.1272077506605,9.965824771091842e-07
285,2993.180886901778,1.030266459380719e-06
286,3129.2345660528963,1.0633895893119714e-06
287,3265.288245204014,1.095978853353273e-06
288,3401.3419107494283,1.128058454078794e-06
289,3537.3955899005464,1.1596502588528695e-06
290,3673.4492690516645,1.190774112433978e-06
291,3809.502948202782,1.2214481347207331e-06
292,3945.5566273539002,1.2516889419136494e-06
293,4081.610306505018,1.2815118344136067e-06
294,4217.663972050432,1.3109309507774742e-06
295,4353.717651201549,1.339959416768702e-06
296,4489.771330352668,1.3686094312030348e-06
297,4625.825009503786,1.3968923807446351e-06
298,4761.878688654903,1.4248189171003747e-06
299,4897.932354200318,1.4523990262502126e-06
300,5033.986033351435,1.4796421057059873e-06
301,5170.039712502553,1.5065569961215668e-06
302,5306.0933916536715,1.533152044476119e-06
303,5442.147070804789,1.5594351438660136e-06
304,5578.200749955907,1.5854137701674003e-06
305,5714.254415501321,1.6110950120393572e-06
306,5850.308094652439,1.6364856173121854e-06
307,5986.361773803556,1.6615919949760076e-06
308,6122.415452954675,1.686420256869856e-06
309,6258.469132105793,1.7109762335350191e-06
310,6394.522797651206,1.7352654920326943e-06
311,6530.576476802325,1.7592933681657602e-06
312,6666.630155953442,1.7830649598853487e-06
313,6802.68383510456,1.8065851584275318e-06
314,6938.737514255678,1.829858655239813e-06
315,7074.791179801093,1.8528899555699869e-06
316,7210.8448589522095,1.875683398613603e-06
317,7346.898538103329,1.89824315118711e-06
318,7482.952217254446,1.920573228721524e-06
319,7619.005896405564,1.942677502117347e-06
320,7755.059575556682,1.964559704980125e-06
321,7891.113241102096,1.986223438421629e-06
322,8027.166920253213,2.007672191609651e-06
323,8163.220599404332,2.0289093276863455e-06
324,8299.27427855545,2.049938103045414e-06
325,8435.327957706568,2.0707616713866728e-06
326,8571.38162325198,2.0913830820374162e-06
327,8707.435302403099,2.1118053024122008e-06
328,8843.488981554217,2.132031199690544e-06
329,8979.542660705336,2.152063560321149e-06
330,9115.596339856453,2.1719050877911117e-06
331,9251.650019007571,2.1915584100725175e-06
332,9387.703684552984,2.2110260774816857e-06
333,9523.757363704102,2.230310579641166e-06
334,9659.81104285522,2.2494143295266963e-06
335,9795.86472200634,2.268339677856814e-06
336,9931.918401157456,2.2870889153337846e-06
337,10067.97206670287,2.3056642686191186e-06
338,10204.025745853987,2.3240679186040147e-06
339,10340.079425005106,2.342301981646631e-06
340,10476.133104156224,2.360368525770817e-06
341,10612.186783307343,2.3782695691459796e-06
342,10748.24046245846,2.3960070806622115e-06
343,10884.294128003874,2.4135829808842297e-06
344,11020.34780715499,2.4309991549983658e-06
345,11156.40148630611,2.4482574367994476e-06
346,11292.455165457228,2.465359620339241e-06
347,11428.508844608346,2.482307461726483e-06
348,11564.562510153759,2.4991026745195477e-06
349,11700.616189304877,2.5157469452104905e-06
350,11836.669868455994,2.5322419149901263e-06
351,11972.723547607113,2.5485891947841353e-06
352,12108.777226758231,2.5647903612331014e-06
353,12244.83090590935,2.5808469594763964e-06
354,12380.884571454762,2.5967605005429716e-06
355,12516.938250605881,2.612532473997395e-06
356,12652.991929756998,2.628164333024186e-06
357,12789.045608908116,2.643657503131298e-06
358,12925.099288059235,2.659013384803951e-06
359,13061.15295360465,2.674233349473425e-06
360,13197.206632755768,2.6893187498239254e-06
361,13333.260311906884,2.7042709063525116e-06
362,13469.313991058003,2.7190911186888674e-06
363,13605.36767020912,2.73378066278684e-06
364,16326.441198808663,3.001916519389106e-06
365,19047.514727408205,3.226588710060906e-06
366,21768.58826961345,3.414219217665358e-06
367,24489.661798212994,3.5698482083010093e-06
368,27210.735326812537,3.697569710949557e-06
369,29931.808869017783,3.8007927559355925e-06
370,32652.882397617326,3.882408840258677e-06
371,35373.95592621687,3.944905187827784e-06
372,38095.029468422115,3.990444704528989e-06
373,40816.10299702166,4.020924473866583e-06
374,43537.1765392269,4.038019966131175e-06
375,46258.25006782645,4.043219333693937e-06
376,48979.32359642599,4.0378507533553366e-06
377,51700.39713863123,4.023104967604375e-06
378,54421.47066723078,4.000054516588124e-06
379,57142.54419583032,3.96967090735192e-06
380,59863.617738035566,3.932840364962116e-06
381,62584.691266635105,3.890378958124863e-06
382,65305.76479523465,3.8430477928352e-06
383,68026.8383374399,3.791567078241577e-06
384,70747.91186603945,3.7366310503851214e-06
385,73468.98539463898,3.6789222815189096e-06
386,76190.05893684423,3.6191242257939273e-06
387,78911.13246544376,3.5579363467622396e-06
388,81632.20599404332,3.4960851216930055e-06
389,84353.27953624855,3.434328057426284e-06
390,87074.35306484811,3.373474682615245e-06
391,89795.42659344764,3.314378587372354e-06
392,92516.5001356529,3.2579135476206103e-06
393,95237.57366425243,3.2041296339158787e-06
394,97958.64719285197,3.152745657066943e-06
395,100679.72073505721,3.1035921559480576e-06
396,103400.79426365678,3.0565158011492073e-06
397,106121.86779225631,3.0113774889181614e-06
398,108842.94133446156,2.9680506929039416e-06
399,111564.0148630611,2.926420045495258e-06
400,114285.08839166064,2.886380114605762e-06
401,117006.16193386588,2.847834332784587e-06
402,119727.23546246543,2.8106940658391475e-06
403,122448.30900467066,2.774877801560674e-06
404,125169.38253327021,2.7403104291655266e-06
405,127890.45606186974,2.7069226173921047e-06
406,130611.529604075,2.6746502519438425e-06
407,133332.60313267456,2.643433947593036e-06
408,136053.6766612741,2.6132186097015206e-06
409,138774.75020347934,2.58395304795069e-06
410,141495.8237320789,2.5555896259852866e-06
411,144216.89726067844,2.5280839558966237e-06
412,146937.97080288368,2.5013946176021783e-06
413,149659.04433148322,2.4754829119029238e-06
414,156461.72816658777,2.413873797300648e-06
415,163264.4120016923,2.356398283852706e-06
416,170067.0958367969,2.302623295798197e-06
417,176869.77965829574,2.2521761713516553e-06
418,183672.4634934003,2.2047342946185737e-06
419,190475.14732850486,2.160016813935961e-06
420,197277.83116360943,2.117777972753194e-06
421,204080.51499871397,2.0778016928735112e-06
422,210883.19883381855,2.0398971429356755e-06
423,217685.88266892312,2.003895084578441e-06
424,224488.56649042197,1.96964484894341e-06
425,231291.25032552652,1.937011806221128e-06
426,238093.93416063106,1.9058752474532487e-06
427,244896.61799573564,1.8761265970950663e-06
428,251699.30183084018,1.8476678942532782e-06
429,258501.98566594475,1.8204105043947677e-06
430,265304.6695010493,1.7942740122586708e-06
431,272107.3533225482,1.7691852709387722e-06
432,278910.0371576527,1.7450775857602037e-06
433,285712.7209927573,1.7218900023725758e-06
434,292515.4048278619,1.6995666892636284e-06
435,299318.08866296645,1.6780564027978463e-06
436,306120.77249807096,1.6573120133108753e-06
437,312923.45633317553,1.63729009358869e-06
438,319726.1401682801,1.6179505556275893e-06
439,326528.82398977893,1.5992563272271685e-06
440,333331.50782488356,1.581173070704436e-06
441,340134.1916599881,1.5636689276032226e-06
442,346936.87549509265,1.5467142966885496e-06
443,353739.5593301972,1.5302816318181948e-06
444,360542.24316530174,1.514345264298314e-06
445,367344.9270004063,1.4988812405965908e-06
446,374147.6108219052,1.4838671809344553e-06
447,380950.2946570097,1.469282147880078e-06
448,387752.9784921143,1.4551065298008598e-06
