,E (eV),I (erg/s/cm**2)
0,1.360543186192048,0.0007241956457494997
1,2.0408011735840956,0.0008606803610413317
2,2.7210727666801198,0.0008383350844359578
3,3.401344359776144,0.0006931403990433786
4,4.081615952872168,0.0007953641554650436
5,4.761873940264215,0.0009313505446804207
6,5.4421455333602395,0.001116142040110404
7,6.122417126456264,0.001280241693203932
8,6.802688719552288,0.0014268303029831206
9,7.482946706944335,0.0015587218148167426
10,8.16321830004036,0.0016866976266720606
11,8.843489893136384,0.0018062248913593814
12,9.523761486232408,0.0018763577328284593
13,10.204019473624456,0.0009233085773360556
14,10.884291066720479,0.0007924442314788479
15,11.564562659816504,0.0006126563856978598
16,12.244834252912527,0.00044524014014380657
17,12.92510584600855,0.00021233224789620131
18,13.7414208731606,1.3446703371795474e-05
19,14.421692466256623,1.241327225480842e-05
20,15.101964059352648,1.193046698607363e-05
21,15.782222046744696,1.1233763856411838e-05
22,16.46249363984072,1.1369303379912879e-05
23,17.142765232936743,1.1207858162041123e-05
24,17.823036826032766,1.1019315832319317e-05
25,18.503294813424816,1.0736276616738828e-05
26,19.18356640652084,1.0942237715725603e-05
27,19.863837999616862,1.076108852715377e-05
28,20.544109592712886,1.0799820867376692e-05
29,21.224367580104932,1.0509721887679766e-05
30,21.90463917320096,1.0132340340946954e-05
31,22.584910766296982,1.0025180493625178e-05
32,23.26518235939301,1.0532318794069746e-05
33,23.945440346785055,1.013359356768082e-05
34,24.62571193988108,9.781259222537712e-06
35,25.305983532977105,9.494831047191676e-06
36,25.986255126073125,9.073023761161308e-06
37,26.66652671916915,8.918098982462868e-06
38,27.210741272505174,8.284279052061261e-06
39,27.3467847065612,8.899972804819796e-06
40,27.4828417463212,8.375083805412515e-06
41,27.618898786081196,8.627475373996456e-06
42,27.7549558258412,8.530439916095611e-06
43,27.89099925989722,8.456959647952564e-06
44,28.02705629965722,8.44026031252497e-06
45,28.16311333941722,8.228076083296806e-06
46,28.299170379177223,8.506063022265403e-06
47,28.435213813233247,8.342546040864623e-06
48,28.571270852993244,8.506500140159462e-06
49,28.70732789275325,8.085293941304014e-06
50,28.843384932513246,8.345702879138722e-06
51,28.97942836656927,8.390688131757731e-06
52,29.115485406329267,8.320178929009394e-06
53,29.25154244608927,8.155556201514518e-06
54,29.387599485849268,8.113797379893223e-06
55,29.523642919905292,7.758660671883815e-06
56,29.659699959665296,8.143043621512238e-06
57,29.795756999425294,8.121114003700977e-06
58,29.931814039185298,7.838110141126556e-06
59,30.067857473241315,7.879217375685195e-06
60,30.20391451300132,7.93061952168011e-06
61,30.339971552761316,7.873172944166689e-06
62,30.47602859252132,7.999047521204063e-06
63,30.612072026577344,7.630414369088238e-06
64,30.74812906633734,7.745280276605213e-06
65,30.884186106097346,7.799308283348332e-06
66,31.020243145857343,7.664130999694699e-06
67,31.156286579913367,7.857899537736983e-06
68,31.292343619673364,7.390594357175751e-06
69,31.42840065943337,7.657327759409684e-06
70,31.564457699193365,7.682186974940105e-06
71,31.70050113324939,7.4508689951098775e-06
72,31.836558173009394,7.986840909400109e-06
73,31.97261521276939,7.40610783378591e-06
74,32.108672252529395,7.731104657752655e-06
75,32.244715686585415,7.89734699576283e-06
76,32.38077272634541,7.535413041511561e-06
77,32.51682976610541,7.724258251820615e-06
78,32.652886805865414,7.937576878487385e-06
79,32.78893023992144,7.75931101364231e-06
80,32.92498727968144,7.911418555419606e-06
81,33.06104431944144,7.961379679733136e-06
82,33.19710135920144,8.0641855134174e-06
83,33.33314479325746,8.32784724665171e-06
84,33.46920183301746,8.149642587313612e-06
85,33.60525887277746,8.270189287955965e-06
86,33.74131591253746,8.556759220524766e-06
87,33.87735934659349,8.137624616685055e-06
88,34.01341638635349,8.34361690178259e-06
89,34.14947342611349,8.614319838409017e-06
90,34.285530465873485,8.396577065548479e-06
91,34.421573899929506,8.717299021561296e-06
92,34.55763093968951,8.793927000608642e-06
93,34.69368797944951,8.755921008507075e-06
94,34.82974501920951,8.890845242636461e-06
95,34.96578845326554,9.196152022811558e-06
96,35.101845493025536,9.187908865365458e-06
97,35.23790253278553,9.314375564192222e-06
98,35.37395957254554,9.59794524185161e-06
99,35.51000300660156,9.619644087714282e-06
100,35.646060046361555,9.566016364050825e-06
101,35.78211708612156,1.0045518469971137e-05
102,35.918174125881556,1.0162021374015393e-05
103,36.054217559937584,9.804594315159362e-06
104,36.19027459969758,1.0360310148188142e-05
105,36.326331639457585,1.0679658686844465e-05
106,36.46238867921758,1.0606466940487898e-05
107,36.59844571897758,1.064390927390659e-05
108,36.73448915303361,1.1061470166218956e-05
109,36.870546192793604,1.116351160866656e-05
110,37.00660323255361,1.1137960323076967e-05
111,37.142660272313606,1.168772893739811e-05
112,37.27870370636963,1.1777381072112978e-05
113,37.41476074612963,1.1761819300015296e-05
114,37.55081778588963,1.2169286116519345e-05
115,37.686874825649625,1.2432983059621158e-05
116,37.82291825970565,1.251581529691661e-05
117,37.958975299465656,1.2658183162589565e-05
118,38.095032339225654,1.3110040819340226e-05
119,38.23108937898566,1.3043782489672479e-05
120,38.36713281304168,1.3231334452784694e-05
121,38.503189852801675,1.327829003681762e-05
122,38.63924689256167,1.3676664250677375e-05
123,38.77530393232168,1.3868164208302263e-05
124,38.911347366377704,1.4018068459956273e-05
125,39.0474044061377,1.4512504953603888e-05
126,39.183461445897706,1.4616541201730346e-05
127,39.3195184856577,1.4909576509577357e-05
128,39.45556191971372,1.5408339897841222e-05
129,39.59161895947372,1.5507574537132485e-05
130,39.727675999233725,1.5780048803777315e-05
131,39.86373303899372,1.6400070372177133e-05
132,39.99977647304975,1.6592584897627205e-05
133,40.135833512809754,1.676728496075129e-05
134,40.27189055256975,1.6849804845691976e-05
135,40.407947592329755,1.735907448158633e-05
136,40.54399102638577,1.7669151218844463e-05
137,40.68004806614577,1.799474904776005e-05
138,40.81610510590577,1.785656549128242e-05
139,40.952162145665774,4.182958535005275e-06
140,41.0882055797218,4.1828365813214876e-06
141,41.2242626194818,4.340175697828593e-06
142,41.3603196592418,4.066416243696798e-06
143,41.4963766990018,4.075371965353532e-06
144,41.63242013305782,4.1386638126338215e-06
145,41.76847717281782,4.004735136982686e-06
146,41.90453421257782,3.832722952979251e-06
147,42.04059125233782,3.8802676171845216e-06
148,42.17663468639385,3.87401652524957e-06
149,42.31269172615385,3.6278865101132805e-06
150,42.44874876591385,3.781750067980188e-06
151,42.584805805673845,3.7748078953946875e-06
152,42.720849239729866,3.6398974585719255e-06
153,42.85690627948987,3.6074095523890544e-06
154,42.99296331924987,3.724802840426644e-06
155,43.12902035900987,3.567512530744316e-06
156,43.2650637930659,3.4470508934492943e-06
157,43.401120832825896,3.430939706972944e-06
158,43.53717787258589,3.4944375444316994e-06
159,43.67323491234589,3.150562735277525e-06
160,43.80927834640192,3.276389488934541e-06
161,43.945335386161915,3.274211925911067e-06
162,44.08139242592192,3.143962839604542e-06
163,44.217449465681916,2.940464248881101e-06
164,44.353492899737944,3.0093197752588626e-06
165,44.48954993949794,3.0081826301690383e-06
166,44.62560697925794,2.7240753842230394e-06
167,44.761664019017935,2.6832891045913773e-06
168,44.89770745307396,2.8239999230068773e-06
169,45.03376449283397,2.8389863298742347e-06
170,45.169821532593964,2.353750680995612e-06
171,45.30587857235397,2.4921753182943665e-06
172,45.44192200640999,2.505320541039551e-06
173,45.577979046169986,2.396336267873777e-06
174,45.71403608592998,1.943482124566786e-06
175,45.85009312568999,2.1619014097331815e-06
176,45.986136559746015,2.2532103712995125e-06
177,46.12219359950601,2.080069264084306e-06
178,46.258250639266016,1.7421658075042175e-06
179,46.394307679026014,1.970673069204842e-06
180,46.53035111308204,2.0134631943364165e-06
181,46.66640815284203,1.8061228602620882e-06
182,46.802465192602035,1.5470341936129721e-06
183,46.93852223236203,1.7794520713280387e-06
184,47.07456566641806,1.8110585128640276e-06
185,47.210622706178064,1.6080249650755504e-06
186,47.34667974593806,1.3413019871666983e-06
187,47.482736785698066,1.532387234216014e-06
188,47.618780219754086,1.4966542265058993e-06
189,47.75483725951408,1.3448935700486775e-06
190,47.89089429927408,1.0750529934799159e-06
191,48.026951339034085,1.172105359116106e-06
192,48.16299477309011,1.1923511085910739e-06
193,48.29905181285011,1.1207707358254888e-06
194,48.43506041766452,1.7759722716518375e-06
195,48.43515728755569,1.7759758235879595e-06
196,48.57116589237011,1.9246439742902763e-06
197,48.707222932130115,1.8254945368351593e-06
198,48.84326636618613,1.708476612859618e-06
199,48.97932340594613,1.6724192669843485e-06
200,49.11538044570613,1.7139357005599486e-06
201,49.251437485466134,1.697598946928264e-06
202,49.38748091952216,1.368259907487573e-06
203,49.52353795928216,1.4005089618643537e-06
204,49.65959499904216,1.4359093953062502e-06
205,49.79565203880216,1.447875755098775e-06
206,49.93169547285818,1.203166161165185e-06
207,50.06775251261818,1.1669635501076222e-06
208,50.20380955237818,1.1635473391532215e-06
209,50.33986659213818,1.2153827813621626e-06
210,50.47591002619421,1.0481337266867014e-06
211,50.61196706595421,9.89889810621702e-07
212,50.74802410571421,9.94675856166858e-07
213,50.884081145474205,9.87212756003692e-07
214,51.02007355950089,1.339978328763257e-06
215,51.02017559955957,9.903822916900721e-07
216,51.15618161929023,1.212510528849358e-06
217,51.29223865905023,1.2134246914408012e-06
218,51.42829569881023,1.2146074727228992e-06
219,51.56433913286626,1.1540865215272912e-06
220,51.700396172626256,1.0261243603855847e-06
221,51.83645321238625,1.03939801962388e-06
222,51.97251025214625,1.018030072277123e-06
223,52.10855368620228,9.754479082705302e-07
224,52.24455848141958,1.2332353732578919e-06
225,52.244662970504976,9.917919352785833e-07
226,52.38066776572228,1.1406896924499172e-06
227,52.516724805482276,1.1166244395050301e-06
228,52.652768239538304,1.0822022094016595e-06
229,52.7888252792983,1.0914445730636624e-06
230,52.92482939423041,1.2728152340527402e-06
231,52.924935243886196,1.272817779683136e-06
232,53.060939358818295,1.165835403515004e-06
233,53.19698279287432,1.1391239680824266e-06
234,53.33303983263433,1.1390603124288662e-06
235,53.469096872394324,1.1903740284265045e-06
236,53.60515391215433,1.1145719987379209e-06
237,53.74119734621035,1.0028567131944446e-06
238,53.877254385970346,1.0016494054022742e-06
239,54.01331142573034,1.0370596809004683e-06
240,54.14936846549035,1.0860800447954655e-06
241,54.285411899546375,9.599725781306698e-07
242,54.55752597906638,8.587373828365256e-07
243,61.36021469861866,2.00328438967746e-07
244,68.16288981246697,1.7842109623461906e-07
245,74.96557853201926,1.8456299153783776e-07
246,81.76825364586757,1.8369806531293448e-07
247,88.57094236541987,1.909165880362619e-07
248,95.37363108497215,1.9373753316620683e-07
249,102.17630619882047,1.946283875192812e-07
250,108.97899491837275,1.9896883910583125e-07
251,115.78168363792504,2.0300886779053716e-07
252,122.58435875177334,2.0769623185841363e-07
253,129.38704747132562,2.1256937096712061e-07
254,136.05367915111793,2.1761763010700844e-07
255,136.1897361908779,2.177226850801851e-07
256,204.0805119238249,2.3483364576490964e-07
257,272.10735830223587,2.8196288601379145e-07
258,340.1341910749428,3.613973081658578e-07
259,408.1610238476498,4.219220775163802e-07
260,476.18787022606074,4.67917582736938e-07
261,544.2147029987677,5.084827009590826e-07
262,612.2415493771787,5.567683581496144e-07
263,680.2683821498856,6.139758362470016e-07
264,748.2952149225927,6.679196180566548e-07
265,816.3220613010035,7.192084145628649e-07
266,884.3488940737104,7.683669397703228e-07
267,952.3757404521215,8.157770927833907e-07
268,1020.4025732248285,8.617206251765765e-07
269,1088.4294196032395,9.064092262369151e-07
270,1156.4562523759464,9.500049659977937e-07
271,1224.4830851486533,9.926343952648706e-07
272,1292.5099315270643,1.0343981493670956e-06
273,1360.5367642997712,1.0753776203913674e-06
274,1496.590443450889,1.155240397803647e-06
275,1632.644122602007,1.23263920978903e-06
276,1768.697801753125,1.3078778204079082e-06
277,1904.7514672985392,1.381187342798435e-06
278,2040.805146449657,1.4527497658706403e-06
279,2176.8588256007747,1.522712364564385e-06
280,2312.912504751893,1.5911970632131507e-06
281,2448.966183903011,1.658306670247929e-06
282,2585.0198630541286,1.724129209449376e-06
283,2721.0735285995424,1.7887410086249987e-06
284,2857.1272077506605,1.8522090071456236e-06
285,2993.180886901778,1.914592408517146e-06
286,3129.2345660528963,1.9759440262846313e-06
287,3265.288245204014,2.036311297869956e-06
288,3401.3419107494283,2.0957370822974074e-06
289,3537.3955899005464,2.1542603510239076e-06
290,3673.4492690516645,2.2119166628264323e-06
291,3809.502948202782,2.268738637618744e-06
292,3945.5566273539002,2.3247563099209937e-06
293,4081.610306505018,2.379997435146506e-06
294,4217.663972050432,2.434487737660898e-06
295,4353.717651201549,2.4882511635530947e-06
296,4489.771330352668,2.541310021223079e-06
297,4625.825009503786,2.593685177563093e-06
298,4761.878688654903,2.6453961889712413e-06
299,4897.932354200318,2.6964614170950994e-06
300,5033.986033351435,2.7468981698091747e-06
301,5170.039712502553,2.796722749746777e-06
302,5306.0933916536715,2.8459505668984864e-06
303,5442.147070804789,2.8945962096156967e-06
304,5578.200749955907,2.942673508030581e-06
305,5714.254415501321,2.990195587446664e-06
306,5850.308094652439,3.037174952100096e-06
307,5986.361773803556,3.083623488003295e-06
308,6122.415452954675,3.129552534728101e-06
309,6258.469132105793,3.1749729201542232e-06
310,6394.522797651206,3.219894987247593e-06
311,6530.576476802325,3.2643286543370287e-06
312,6666.630155953442,3.3082834024953443e-06
313,6802.68383510456,3.351768331998221e-06
314,6938.737514255678,3.394792175987556e-06
315,7074.791179801093,3.4373633233017097e-06
316,7210.8448589522095,3.479489858015896e-06
317,7346.898538103329,3.5211795442878546e-06
318,7482.952217254446,3.562439868141915e-06
319,7619.005896405564,3.603278046539914e-06
320,7755.059575556682,3.6437010444120255e-06
321,7891.113241102096,3.683715580599127e-06
322,8027.166920253213,3.723328166197352e-06
323,8163.220599404332,3.762545078664523e-06
324,8299.27427855545,3.8013724004141415e-06
325,8435.327957706568,3.839816018716616e-06
326,8571.38162325198,3.877881631451329e-06
327,8707.435302403099,3.915574782812168e-06
328,8843.488981554217,3.952900831210592e-06
329,8979.542660705336,3.989864983743938e-06
330,9115.596339856453,4.026472295818101e-06
331,9251.650019007571,4.062727680492377e-06
332,9387.703684552984,4.098635908287963e-06
333,9523.757363704102,4.13420163498968e-06
334,9659.81104285522,4.169429373990872e-06
335,9795.86472200634,4.204323526918635e-06
336,9931.918401157456,4.2388883763093165e-06
337,10067.97206670287,4.2731280926628275e-06
338,10204.025745853987,4.307046757742574e-06
339,10340.079425005106,4.340648333710253e-06
340,10476.133104156224,4.373936693214769e-06
341,10612.186783307343,4.4069156135948415e-06
342,10748.24046245846,4.4395887850503494e-06
343,10884.294128003874,4.471959803355217e-06
344,11020.34780715499,4.5040322009793635e-06
345,11156.40148630611,4.535809412328833e-06
346,11292.455165457228,4.567294801587446e-06
347,11428.508844608346,4.5984916577445545e-06
348,11564.562510153759,4.629403192331022e-06
349,11700.616189304877,4.6600325681930674e-06
350,11836.669868455994,4.690382861480104e-06
351,11972.723547607113,4.720457090531897e-06
352,12108.777226758231,4.750258212789255e-06
353,12244.83090590935,4.779789126766984e-06
354,12380.884571454762,4.809052663914265e-06
355,12516.938250605881,4.838051619746364e-06
356,12652.991929756998,4.866788718523843e-06
357,12789.045608908116,4.895266637176244e-06
358,12925.099288059235,4.923488000156258e-06
359,13061.15295360465,4.951455379806216e-06
360,13197.206632755768,4.979171316665479e-06
361,13333.260311906884,5.006638288927913e-06
362,13469.313991058003,5.033858733348767e-06
363,13605.36767020912,5.060835046984678e-06
364,16326.441198808663,5.552445465586023e-06
365,19047.514727408205,5.962937684136873e-06
366,21768.58826961345,6.3043835307029775e-06
367,24489.661798212994,6.586262306875225e-06
368,27210.735326812537,6.816275088238388e-06
369,29931.808869017783,7.000833564071659e-06
370,32652.882397617326,7.14537397576767e-06
371,35373.95592621687,7.254569777741758e-06
372,38095.029468422115,7.332482053118666e-06
373,40816.10299702166,7.382669921783959e-06
374,43537.1765392269,7.408274203889013e-06
375,46258.25006782645,7.41208293681088e-06
376,48979.32359642599,7.396584421238753e-06
377,51700.39713863123,7.364011666711341e-06
378,54421.47066723078,7.3163808838370195e-06
379,57142.54419583032,7.255525862240859e-06
380,59863.617738035566,7.183129516876545e-06
381,62584.691266635105,7.100752466017658e-06
382,65305.76479523465,7.0098600739456715e-06
383,68026.8383374399,6.911847455261782e-06
384,70747.91186603945,6.808057471166899e-06
385,73468.98539463898,6.699806735630148e-06
386,76190.05893684423,6.588396826765004e-06
387,78911.13246544376,6.475118820585749e-06
388,81632.20599404332,6.361293878966655e-06
389,84353.27953624855,6.2482338011249855e-06
390,87074.35306484811,6.137277019925456e-06
391,89795.42659344764,6.029805536823962e-06
392,92516.5001356529,5.927133302645728e-06
393,95237.57366425243,5.829318240191532e-06
394,97958.64719285197,5.735867805823578e-06
395,100679.72073505721,5.6464738107896055e-06
396,103400.79426365678,5.560857407804047e-06
397,106121.86779225631,5.47876561668023e-06
398,108842.94133446156,5.3999683306983804e-06
399,111564.0148630611,5.324255740192904e-06
400,114285.08839166064,5.251436102836236e-06
401,117006.16193386588,5.181333796139689e-06
402,119727.23546246543,5.113787627207635e-06
403,122448.30900467066,5.0486493548328624e-06
404,125169.38253327021,4.9857823802027405e-06
405,127890.45606186974,4.925060613551215e-06
406,130611.529604075,4.866367456743586e-06
407,133332.60313267456,4.809594905749281e-06
408,136053.6766612741,4.754642766681737e-06
409,138774.75020347934,4.701417939897864e-06
410,141495.8237320789,4.6498337949277394e-06
411,144216.89726067844,4.5998096028680354e-06
412,146937.97080288368,4.551270038918915e-06
413,149659.04433148322,4.504144718400046e-06
414,156461.72816658777,4.3920968359354245e-06
415,163264.4120016923,4.287566559985273e-06
416,170067.0958367969,4.189766280748211e-06
417,176869.77965829574,4.098018257175141e-06
418,183672.4634934003,4.011735765301829e-06
419,190475.14732850486,3.930408034298344e-06
420,197277.83116360943,3.853588119105682e-06
421,204080.51499871397,3.7808830497087606e-06
422,210883.19883381855,3.7119457688057253e-06
423,217685.88266892312,3.6464684917249195e-06
424,224488.56649042197,3.5841772031553792e-06
425,231291.25032552652,3.5248270583434204e-06
426,238093.93416063106,3.4681985297612647e-06
427,244896.61799573564,3.414094153866299e-06
428,251699.30183084018,3.3623357752463865e-06
429,258501.98566594475,3.3127621971694297e-06
430,265304.6695010493,3.26522717052627e-06
431,272107.3533225482,3.2195976673418445e-06
432,278910.0371576527,3.1757523926256514e-06
433,285712.7209927573,3.1335804896831048e-06
434,292515.4048278619,3.092980420708804e-06
435,299318.08866296645,3.0538589908716636e-06
436,306120.77249807096,3.016130485747539e-06
437,312923.45633317553,2.9797159277567976e-06
438,319726.1401682801,2.944542408537667e-06
439,326528.82398977893,2.9105425063180233e-06
440,333331.50782488356,2.8776537722297742e-06
441,340134.1916599881,2.845818267315838e-06
442,346936.87549509265,2.8149821554583667e-06
443,353739.5593301972,2.785095339079437e-06
444,360542.24316530174,2.756111135358576e-06
445,367344.9270004063,2.727985982306851e-06
446,374147.6108219052,2.7006791765291496e-06
447,380950.2946570097,2.674152639938212e-06
448,387752.9784921143,2.6483707058447827e-06
