,E (eV),I (erg/s/cm**2)
0,1.360543186192048,0.0007315813668145946
1,2.0408011735840956,0.000876233558597307
2,2.7210727666801198,0.0008289924050751344
3,3.401344359776144,0.0007051703505199501
4,4.081615952872168,0.0008145106938695274
5,4.761873940264215,0.00098371377207261
6,5.4421455333602395,0.0011385146454176325
7,6.122417126456264,0.0012910847424079425
8,6.802688719552288,0.0014383941751612912
9,7.482946706944335,0.0015568035044289522
10,8.16321830004036,0.0016963964030802725
11,8.843489893136384,0.0017799362413791616
12,9.523761486232408,0.0018354435584189183
13,10.204019473624456,0.0009298651285732927
14,10.884291066720479,0.0007527911040210618
15,11.564562659816504,0.0005882816155380552
16,12.244834252912527,0.00038077916421038626
17,12.92510584600855,0.00022074846036218402
18,13.7414208731606,1.4217665683505051e-05
19,14.421692466256623,1.3383741947457503e-05
20,15.101964059352648,1.2873584215419274e-05
21,15.782222046744696,1.208800644497912e-05
22,16.46249363984072,1.2214612279660968e-05
23,17.142765232936743,1.208476848581379e-05
24,17.823036826032766,1.1695724494647462e-05
25,18.503294813424816,1.1783104644667149e-05
26,19.18356640652084,1.1604483934480485e-05
27,19.863837999616862,1.139763304072691e-05
28,20.544109592712886,1.1360000232543991e-05
29,21.224367580104932,1.1224385175652888e-05
30,21.90463917320096,1.0787508569624756e-05
31,22.584910766296982,1.0580831658858327e-05
32,23.26518235939301,1.0927743638304518e-05
33,23.945440346785055,1.0407623876551486e-05
34,24.62571193988108,1.0279380101827122e-05
35,25.305983532977105,9.658309639970532e-06
36,25.986255126073125,9.636320296401513e-06
37,26.66652671916915,9.491678874358724e-06
38,27.210741272505174,8.960776993196372e-06
39,27.3467847065612,9.059190085678223e-06
40,27.4828417463212,8.82554753046813e-06
41,27.618898786081196,8.894004268180109e-06
42,27.7549558258412,8.955144080817137e-06
43,27.89099925989722,8.830046065934062e-06
44,28.02705629965722,8.93998046567024e-06
45,28.16311333941722,8.63598831966855e-06
46,28.299170379177223,8.759243297696116e-06
47,28.435213813233247,8.636108371762066e-06
48,28.571270852993244,8.900366544504014e-06
49,28.70732789275325,8.706110111199758e-06
50,28.843384932513246,8.666782598224685e-06
51,28.97942836656927,8.775022097087643e-06
52,29.115485406329267,8.417754383417317e-06
53,29.25154244608927,8.699210903035336e-06
54,29.387599485849268,8.666001530034827e-06
55,29.523642919905292,8.1635313265479e-06
56,29.659699959665296,8.524396008911988e-06
57,29.795756999425294,8.23281520026454e-06
58,29.931814039185298,8.51958106589473e-06
59,30.067857473241315,8.39470651077286e-06
60,30.20391451300132,8.327366423080299e-06
61,30.339971552761316,8.37503599516953e-06
62,30.47602859252132,8.159601978227058e-06
63,30.612072026577344,8.312073164763452e-06
64,30.74812906633734,8.099319418732751e-06
65,30.884186106097346,8.105584442460898e-06
66,31.020243145857343,8.324180744175784e-06
67,31.156286579913367,8.098015949684101e-06
68,31.292343619673364,8.122648173349247e-06
69,31.42840065943337,8.279490528446397e-06
70,31.564457699193365,8.07068895242878e-06
71,31.70050113324939,8.264459047746397e-06
72,31.836558173009394,8.295116621397934e-06
73,31.97261521276939,8.043211937234293e-06
74,32.108672252529395,8.447481286291207e-06
75,32.244715686585415,8.225401698277242e-06
76,32.38077272634541,8.184018310149099e-06
77,32.51682976610541,8.42250166669397e-06
78,32.652886805865414,8.402446200428963e-06
79,32.78893023992144,8.453196012162842e-06
80,32.92498727968144,8.474690723640331e-06
81,33.06104431944144,8.569279534886353e-06
82,33.19710135920144,8.884005572542585e-06
83,33.33314479325746,8.700150491784881e-06
84,33.46920183301746,8.769272532331555e-06
85,33.60525887277746,9.08945228355062e-06
86,33.74131591253746,8.988710237256854e-06
87,33.87735934659349,8.818670613537113e-06
88,34.01341638635349,9.395783465214116e-06
89,34.14947342611349,9.195826025297578e-06
90,34.285530465873485,8.909351598886496e-06
91,34.421573899929506,9.678702661607767e-06
92,34.55763093968951,9.515484739018412e-06
93,34.69368797944951,9.218999368528977e-06
94,34.82974501920951,9.772065914661025e-06
95,34.96578845326554,9.910584017553827e-06
96,35.101845493025536,9.77830185579588e-06
97,35.23790253278553,1.012326100093686e-05
98,35.37395957254554,1.0431801687620722e-05
99,35.51000300660156,1.0229612197179798e-05
100,35.646060046361555,1.037466008385138e-05
101,35.78211708612156,1.0894148961027037e-05
102,35.918174125881556,1.082732412985445e-05
103,36.054217559937584,1.0662934751025056e-05
104,36.19027459969758,1.120913547220272e-05
105,36.326331639457585,1.133408069408085e-05
106,36.46238867921758,1.1212594965477136e-05
107,36.59844571897758,1.1510140715772347e-05
108,36.73448915303361,1.1788271023767007e-05
109,36.870546192793604,1.1788771671330925e-05
110,37.00660323255361,1.1865227352711213e-05
111,37.142660272313606,1.2446787004588506e-05
112,37.27870370636963,1.2345307952335524e-05
113,37.41476074612963,1.2465904317755718e-05
114,37.55081778588963,1.2992493026049045e-05
115,37.686874825649625,1.290963022828264e-05
116,37.82291825970565,1.318782670615482e-05
117,37.958975299465656,1.3538262692917527e-05
118,38.095032339225654,1.362616308224645e-05
119,38.23108937898566,1.3699173752764128e-05
120,38.36713281304168,1.3701430268883241e-05
121,38.503189852801675,1.4173248489910155e-05
122,38.63924689256167,1.4163174243666938e-05
123,38.77530393232168,1.444143608055966e-05
124,38.911347366377704,1.4866242322808857e-05
125,39.0474044061377,1.5000132323133786e-05
126,39.183461445897706,1.5192525977596885e-05
127,39.3195184856577,1.5181818145916176e-05
128,39.45556191971372,1.578524529979545e-05
129,39.59161895947372,1.5960317030290383e-05
130,39.727675999233725,1.6143834984531483e-05
131,39.86373303899372,1.6503708875237224e-05
132,39.99977647304975,1.694010506774626e-05
133,40.135833512809754,1.7133239561686755e-05
134,40.27189055256975,1.6968636338875277e-05
135,40.407947592329755,1.7634154819132108e-05
136,40.54399102638577,1.7945171025263757e-05
137,40.68004806614577,1.812990298394308e-05
138,40.81610510590577,1.7948273923729272e-05
139,40.952162145665774,4.433712237062383e-06
140,41.0882055797218,4.355119501187317e-06
141,41.2242626194818,4.361971319991e-06
142,41.3603196592418,4.319677956686094e-06
143,41.4963766990018,4.2535952389279366e-06
144,41.63242013305782,4.183559788557975e-06
145,41.76847717281782,4.164294917019687e-06
146,41.90453421257782,4.133778613516626e-06
147,42.04059125233782,3.871495435555946e-06
148,42.17663468639385,3.985309280640335e-06
149,42.31269172615385,3.947134798425195e-06
150,42.44874876591385,3.924214907640254e-06
151,42.584805805673845,3.7938422754946932e-06
152,42.720849239729866,3.848677230440901e-06
153,42.85690627948987,3.8923079954164695e-06
154,42.99296331924987,3.609244661836352e-06
155,43.12902035900987,3.6934266959761848e-06
156,43.2650637930659,3.7562482665690313e-06
157,43.401120832825896,3.5990389099400886e-06
158,43.53717787258589,3.4009470110559998e-06
159,43.67323491234589,3.5206173515290853e-06
160,43.80927834640192,3.5598188564177317e-06
161,43.945335386161915,3.3348119749581512e-06
162,44.08139242592192,3.1639678219790546e-06
163,44.217449465681916,3.3173771488716917e-06
164,44.353492899737944,3.2834302949451018e-06
165,44.48954993949794,2.8921981669534147e-06
166,44.62560697925794,2.8897313676536663e-06
167,44.761664019017935,3.0433815420621444e-06
168,44.89770745307396,3.029880384819743e-06
169,45.03376449283397,2.7180051709938796e-06
170,45.169821532593964,2.7374105958822753e-06
171,45.30587857235397,2.841585253973984e-06
172,45.44192200640999,2.6913892151449537e-06
173,45.577979046169986,2.379762304612167e-06
174,45.71403608592998,2.3778824720446938e-06
175,45.85009312568999,2.462514717122346e-06
176,45.986136559746015,2.4299065582587924e-06
177,46.12219359950601,2.1180094844431193e-06
178,46.258250639266016,2.1574871803080394e-06
179,46.394307679026014,2.246991726074678e-06
180,46.53035111308204,2.1937509370088755e-06
181,46.66640815284203,1.8754424369339289e-06
182,46.802465192602035,1.9342617225987156e-06
183,46.93852223236203,2.035958478355174e-06
184,47.07456566641806,2.015183017149195e-06
185,47.210622706178064,1.6911677279040661e-06
186,47.34667974593806,1.7026850612599361e-06
187,47.482736785698066,1.7891940797528314e-06
188,47.618780219754086,1.776611344478849e-06
189,47.75483725951408,1.6222851979868598e-06
190,47.89089429927408,1.4321722035211373e-06
191,48.026951339034085,1.445971386158663e-06
192,48.16299477309011,1.4699114711131489e-06
193,48.29905181285011,1.442624607475841e-06
194,48.43506041766452,2.067279160707287e-06
195,48.43515728755569,2.067283295255806e-06
196,48.57116589237011,2.2034575726840566e-06
197,48.707222932130115,2.01155183144984e-06
198,48.84326636618613,1.9931088184253084e-06
199,48.97932340594613,1.9536418059687797e-06
200,49.11538044570613,1.988627712586688e-06
201,49.251437485466134,1.7963761869486393e-06
202,49.38748091952216,1.6489441775479486e-06
203,49.52353795928216,1.680857892862834e-06
204,49.65959499904216,1.7190843709404832e-06
205,49.79565203880216,1.571180457021335e-06
206,49.93169547285818,1.4854965412878265e-06
207,50.06775251261818,1.4629159451194703e-06
208,50.20380955237818,1.4584959404048322e-06
209,50.33986659213818,1.5123663378290844e-06
210,50.47591002619421,1.322881145187875e-06
211,50.61196706595421,1.2931958784147734e-06
212,50.74802410571421,1.288827408188912e-06
213,50.884081145474205,1.2898990471587413e-06
214,51.02007355950089,1.205254805799919e-06
215,51.02017559955957,1.2052572163074416e-06
216,51.15618161929023,1.471197183453477e-06
217,51.29223865905023,1.4860124197178474e-06
218,51.42829569881023,1.502749416253829e-06
219,51.56433913286626,1.4573152899053057e-06
220,51.700396172626256,1.2798120848822765e-06
221,51.83645321238625,1.3283058404977075e-06
222,51.97251025214625,1.3020077775731797e-06
223,52.10855368620228,1.2815280973314684e-06
224,52.24455848141958,1.2503629378541392e-06
225,52.244662970504976,1.2503654385792593e-06
226,52.38066776572228,1.3600793896979092e-06
227,52.516724805482276,1.4064902165881878e-06
228,52.652768239538304,1.3793715467218955e-06
229,52.7888252792983,1.3820874773451455e-06
230,52.92482939423041,1.470652158658223e-06
231,52.924935243886196,1.4706550999624567e-06
232,53.060939358818295,1.3727698764859445e-06
233,53.19698279287432,1.40367707155105e-06
234,53.33303983263433,1.4093979052128127e-06
235,53.469096872394324,1.4430603723828439e-06
236,53.60515391215433,1.3266808890275942e-06
237,53.74119734621035,1.2318484053576806e-06
238,53.877254385970346,1.2697785893721908e-06
239,54.01331142573034,1.2860738424314486e-06
240,54.14936846549035,1.3152785541199698e-06
241,54.285411899546375,1.1901192373450184e-06
242,54.55752597906638,1.1348267603939557e-06
243,61.36021469861866,2.9526532393267915e-07
244,68.16288981246697,2.678925911367445e-07
245,74.96557853201926,2.748651292213801e-07
246,81.76825364586757,2.746673154357546e-07
247,88.57094236541987,2.826399875355904e-07
248,95.37363108497215,2.8543987218274435e-07
249,102.17630619882047,2.863215213383025e-07
250,108.97899491837275,2.9100849447814835e-07
251,115.78168363792504,2.9536456837452707e-07
252,122.58435875177334,3.0047766588450717e-07
253,129.38704747132562,3.0298290959998583e-07
254,136.05367915111793,3.03982333948219e-07
255,136.1897361908779,3.039931555006241e-07
256,204.0805119238249,3.080411034480855e-07
257,272.10735830223587,3.6129555992001433e-07
258,340.1341910749428,4.506602658245408e-07
259,408.1610238476498,5.165012466533832e-07
260,476.18787022606074,5.664083902876632e-07
261,544.2147029987677,6.11882636074448e-07
262,612.2415493771787,6.67361320596533e-07
263,680.2683821498856,7.332315308881728e-07
264,748.2952149225927,7.956288495805299e-07
265,816.3220613010035,8.551882228519132e-07
266,884.3488940737104,9.124576933482648e-07
267,952.3757404521215,9.678331557411407e-07
268,1020.4025732248285,1.0216061334584066e-06
269,1088.4294196032395,1.0739960604289105e-06
270,1156.4562523759464,1.1251716440916815e-06
271,1224.4830851486533,1.1752653899742176e-06
272,1292.5099315270643,1.2243833831195147e-06
273,1360.5367642997712,1.2726120465800695e-06
274,1496.590443450889,1.3666764333497066e-06
275,1632.644122602007,1.4579085998291303e-06
276,1768.697801753125,1.5466413747916881e-06
277,1904.7514672985392,1.6331311037173996e-06
278,2040.805146449657,1.717581771041059e-06
279,2176.8588256007747,1.8001599039190706e-06
280,2312.912504751893,1.881004371935872e-06
281,2448.966183903011,1.9602329786123712e-06
282,2585.0198630541286,2.037947086505332e-06
283,2721.0735285995424,2.114234950684677e-06
284,2857.1272077506605,2.189174232693534e-06
285,2993.180886901778,2.2628338140234194e-06
286,3129.2345660528963,2.3352752858004787e-06
287,3265.288245204014,2.4065540780531467e-06
288,3401.3419107494283,2.4767203567612227e-06
289,3537.3955899005464,2.5458197999912867e-06
290,3673.4492690516645,2.6138941372345107e-06
291,3809.502948202782,2.6809816893528386e-06
292,3945.5566273539002,2.7471177716961956e-06
293,4081.610306505018,2.812335043179018e-06
294,4217.663972050432,2.8766637951440278e-06
295,4353.717651201549,2.940132242466882e-06
296,4489.771330352668,3.0027666822757905e-06
297,4625.825009503786,3.0645917247165957e-06
298,4761.878688654903,3.1256304421186683e-06
299,4897.932354200318,3.185904509763466e-06
300,5033.986033351435,3.2454343607121e-06
301,5170.039712502553,3.3042392494284958e-06
302,5306.0933916536715,3.362337381439723e-06
303,5442.147070804789,3.4197459939982854e-06
304,5578.200749955907,3.4764814328559226e-06
305,5714.254415501321,3.5325592164079863e-06
306,5850.308094652439,3.5879941274120106e-06
307,5986.361773803556,3.6428002217330777e-06
308,6122.415452954675,3.6969909138592674e-06
309,6258.469132105793,3.7505790108634125e-06
310,6394.522797651206,3.803576750277792e-06
311,6530.576476802325,3.855995867385393e-06
312,6666.630155953442,3.907847582321362e-06
313,6802.68383510456,3.959142667084058e-06
314,6938.737514255678,4.009891458287325e-06
315,7074.791179801093,4.060103886996147e-06
316,7210.8448589522095,4.109789522823887e-06
317,7346.898538103329,4.158957560873841e-06
318,7482.952217254446,4.207616863673748e-06
319,7619.005896405564,4.255775979604659e-06
320,7755.059575556682,4.303443156398342e-06
321,7891.113241102096,4.3506263510886215e-06
322,8027.166920253213,4.3973332784263405e-06
323,8163.220599404332,4.443571374405145e-06
324,8299.27427855545,4.48934784279904e-06
325,8435.327957706568,4.534669660242435e-06
326,8571.38162325198,4.579543577986488e-06
327,8707.435302403099,4.623976165101722e-06
328,8843.488981554217,4.667973770596304e-06
329,8979.542660705336,4.711542566312938e-06
330,9115.596339856453,4.754688542224107e-06
331,9251.650019007571,4.797417522910127e-06
332,9387.703684552984,4.839735160812473e-06
333,9523.757363704102,4.881646976801845e-06
334,9659.81104285522,4.9231583197960575e-06
335,9795.86472200634,4.9642744062236495e-06
336,9931.918401157456,5.005000314847656e-06
337,10067.97206670287,5.045340990603014e-06
338,10204.025745853987,5.085301270901585e-06
339,10340.079425005106,5.124885855010426e-06
340,10476.133104156224,5.164099333781515e-06
341,10612.186783307343,5.20294618632178e-06
342,10748.24046245846,5.241430789696492e-06
343,10884.294128003874,5.279557407948908e-06
344,11020.34780715499,5.31733022880868e-06
345,11156.40148630611,5.354753327552613e-06
346,11292.455165457228,5.391830691322174e-06
347,11428.508844608346,5.428566221841053e-06
348,11564.562510153759,5.464963731620502e-06
349,11700.616189304877,5.501026967883783e-06
350,11836.669868455994,5.536759581475649e-06
351,11972.723547607113,5.572165153479434e-06
352,12108.777226758231,5.607247191535334e-06
353,12244.83090590935,5.642009133435119e-06
354,12380.884571454762,5.676454340135503e-06
355,12516.938250605881,5.710586126016108e-06
356,12652.991929756998,5.744407723689627e-06
357,12789.045608908116,5.7779223096640684e-06
358,12925.099288059235,5.811132998274675e-06
359,13061.15295360465,5.8440428421217115e-06
360,13197.206632755768,5.876654854690907e-06
361,13333.260311906884,5.908971975633329e-06
362,13469.313991058003,5.940997099550548e-06
363,13605.36767020912,5.972733067161005e-06
364,16326.441198808663,6.550707817380846e-06
365,19047.514727408205,7.032646470208075e-06
366,21768.58826961345,7.4328823726865935e-06
367,24489.661798212994,7.76267265593886e-06
368,27210.735326812537,8.031163071524208e-06
369,29931.808869017783,8.245967518983709e-06
370,32652.882397617326,8.413540443397551e-06
371,35373.95592621687,8.539429271466868e-06
372,38095.029468422115,8.628453140632682e-06
373,40816.10299702166,8.684834193034502e-06
374,43537.1765392269,8.712297415422113e-06
375,46258.25006782645,8.714149117746893e-06
376,48979.32359642599,8.693340800007672e-06
377,51700.39713863123,8.65252287204129e-06
378,54421.47066723078,8.594091351791663e-06
379,57142.54419583032,8.520229308724476e-06
380,59863.617738035566,8.432944172582606e-06
381,62584.691266635105,8.334101627175212e-06
382,65305.76479523465,8.225456037972915e-06
383,68026.8383374399,8.108675725682361e-06
384,70747.91186603945,7.985370415346988e-06
385,73468.98539463898,7.857107358149978e-06
386,76190.05893684423,7.725425270049312e-06
387,78911.13246544376,7.591847338957925e-06
388,81632.20599404332,7.4578919922721245e-06
389,84353.27953624855,7.325079232292253e-06
390,87074.35306484811,7.194918318378091e-06
391,89795.42659344764,7.068932191548347e-06
392,92516.5001356529,6.9485908551698236e-06
393,95237.57366425243,6.833934239485276e-06
394,97958.64719285197,6.724393717344317e-06
395,100679.72073505721,6.619608036732261e-06
396,103400.79426365678,6.519250342487901e-06
397,106121.86779225631,6.423024098997837e-06
398,108842.94133446156,6.3306595826492045e-06
399,111564.0148630611,6.241910861773127e-06
400,114285.08839166064,6.156553180150822e-06
401,117006.16193386588,6.074380678552403e-06
402,119727.23546246543,5.995204413338199e-06
403,122448.30900467066,5.918850617163868e-06
404,125169.38253327021,5.8451591780344415e-06
405,127890.45606186974,5.773982293009125e-06
406,130611.529604075,5.705183289299668e-06
407,133332.60313267456,5.638635570644777e-06
408,136053.6766612741,5.574221690505919e-06
409,138774.75020347934,5.511832522069e-06
410,141495.8237320789,5.451366516535121e-06
411,144216.89726067844,5.392729049222661e-06
412,146937.97080288368,5.335831823818334e-06
413,149659.04433148322,5.2805923409802565e-06
414,156461.72816658777,5.149251707416508e-06
415,163264.4120016923,5.026723026511127e-06
416,170067.0958367969,4.912083082784523e-06
417,176869.77965829574,4.804537447459948e-06
418,183672.4634934003,4.70339837731514e-06
419,190475.14732850486,4.608067163453009e-06
420,197277.83116360943,4.51801990698567e-06
421,204080.51499871397,4.432795978683686e-06
422,210883.19883381855,4.351988567223675e-06
423,217685.88266892312,4.275236897676238e-06
424,224488.56649042197,4.202219773661459e-06
425,231291.25032552652,4.1326501956414345e-06
426,238093.93416063106,4.066270839066577e-06
427,244896.61799573564,4.002850241038197e-06
428,251699.30183084018,3.942179574535838e-06
429,258501.98566594475,3.8840698860984905e-06
430,265304.6695010493,3.828349747645395e-06
431,272107.3533225482,3.7748632271796766e-06
432,278910.0371576527,3.723468144480351e-06
433,285712.7209927573,3.674034556095422e-06
434,292515.4048278619,3.6264434430915578e-06
435,299318.08866296645,3.5805855620681163e-06
436,306120.77249807096,3.536360444067499e-06
437,312923.45633317553,3.4936755105345345e-06
438,319726.1401682801,3.452445300641417e-06
439,326528.82398977893,3.4125907849792194e-06
440,333331.50782488356,3.3740387618527577e-06
441,340134.1916599881,3.336721316172876e-06
442,346936.87549509265,3.3005753422746e-06
443,353739.5593301972,3.2655421176264805e-06
444,360542.24316530174,3.2315669210120997e-06
445,367344.9270004063,3.1985986895325406e-06
446,374147.6108219052,3.1665897126597746e-06
447,380950.2946570097,3.1354953558115953e-06
448,387752.9784921143,3.1052738103870977e-06
