,E (eV),I (erg/s/cm**2)
0,1.360543186192048,0.0005192542753916212
1,2.0408011735840956,0.0006435275193123797
2,2.7210727666801198,0.0006315420177366814
3,3.401344359776144,0.0004903481885176963
4,4.081615952872168,0.000563935465760673
5,4.761873940264215,0.0006526223813134843
6,5.4421455333602395,0.0007457241659713048
7,6.122417126456264,0.0008234653082576806
8,6.802688719552288,0.001098037074169605
9,7.482946706944335,0.0012486763135042738
10,8.16321830004036,0.0014494239573485937
11,8.843489893136384,0.0015961972834081092
12,9.523761486232408,0.0017657092456722112
13,10.204019473624456,0.000799484596090331
14,10.884291066720479,0.0006977527057106874
15,11.564562659816504,0.0005340070924885045
16,12.244834252912527,0.00040160257982453613
17,12.92510584600855,0.00018879135904573236
18,13.7414208731606,9.465891141539132e-06
19,14.421692466256623,8.531052931676293e-06
20,15.101964059352648,7.914165685126054e-06
21,15.782222046744696,6.731062731710557e-06
22,16.46249363984072,7.472718256903048e-06
23,17.142765232936743,7.419494532296952e-06
24,17.823036826032766,7.119695589022415e-06
25,18.503294813424816,7.111643193683222e-06
26,19.18356640652084,7.1137129255874745e-06
27,19.863837999616862,6.972520136545927e-06
28,20.544109592712886,7.428041556694555e-06
29,21.224367580104932,7.172531603631275e-06
30,21.90463917320096,7.095187909400969e-06
31,22.584910766296982,6.865969658738459e-06
32,23.26518235939301,7.75777243846678e-06
33,23.945440346785055,7.847524184297203e-06
34,24.62571193988108,7.186887263949036e-06
35,25.305983532977105,6.7641125435899504e-06
36,25.986255126073125,6.9660703561125255e-06
37,26.66652671916915,6.498578761932959e-06
38,27.210741272505174,6.524198477636185e-06
39,27.3467847065612,6.34390001741312e-06
40,27.4828417463212,6.57658665390593e-06
41,27.618898786081196,5.978665737395406e-06
42,27.7549558258412,6.435330893472753e-06
43,27.89099925989722,6.091306785629472e-06
44,28.02705629965722,6.3870912681529635e-06
45,28.16311333941722,6.037147204962275e-06
46,28.299170379177223,6.512129988642273e-06
47,28.435213813233247,6.452590497287906e-06
48,28.571270852993244,6.300351458584176e-06
49,28.70732789275325,6.561537459367782e-06
50,28.843384932513246,6.3556828875120325e-06
51,28.97942836656927,6.355572193461613e-06
52,29.115485406329267,6.233702020706036e-06
53,29.25154244608927,5.949972343740131e-06
54,29.387599485849268,6.112911186985426e-06
55,29.523642919905292,5.459054185400594e-06
56,29.659699959665296,6.06677094498387e-06
57,29.795756999425294,5.58234553458232e-06
58,29.931814039185298,6.036793606366589e-06
59,30.067857473241315,5.531535248362405e-06
60,30.20391451300132,5.989071070061918e-06
61,30.339971552761316,5.205814303894313e-06
62,30.47602859252132,5.863965083609355e-06
63,30.612072026577344,5.195433201777582e-06
64,30.74812906633734,5.698481451521363e-06
65,30.884186106097346,5.052604984093382e-06
66,31.020243145857343,5.6342279749099635e-06
67,31.156286579913367,4.943962428792948e-06
68,31.292343619673364,5.424656784605513e-06
69,31.42840065943337,4.9062181104123775e-06
70,31.564457699193365,5.3157084233227724e-06
71,31.70050113324939,5.066496150151707e-06
72,31.836558173009394,5.270382519726924e-06
73,31.97261521276939,4.942862722666694e-06
74,32.108672252529395,5.3119221786625565e-06
75,32.244715686585415,4.920835399798371e-06
76,32.38077272634541,5.364753625774508e-06
77,32.51682976610541,4.858243702560518e-06
78,32.652886805865414,5.498945845858961e-06
79,32.78893023992144,4.97589835210886e-06
80,32.92498727968144,5.360771196583219e-06
81,33.06104431944144,5.225596282523554e-06
82,33.19710135920144,5.2973804786587765e-06
83,33.33314479325746,5.227166275123588e-06
84,33.46920183301746,5.327674492022745e-06
85,33.60525887277746,5.301841420065758e-06
86,33.74131591253746,5.299449209769366e-06
87,33.87735934659349,5.255160911735956e-06
88,34.01341638635349,5.347425940415752e-06
89,34.14947342611349,5.295292890884542e-06
90,34.285530465873485,5.481921475297199e-06
91,34.421573899929506,5.4050452812929414e-06
92,34.55763093968951,5.586246945110239e-06
93,34.69368797944951,5.3566142908675935e-06
94,34.82974501920951,5.529643163644633e-06
95,34.96578845326554,5.605962060233008e-06
96,35.101845493025536,5.727672671539908e-06
97,35.23790253278553,5.8092906137986176e-06
98,35.37395957254554,6.143272827032364e-06
99,35.51000300660156,6.016620876612022e-06
100,35.646060046361555,6.192782163042279e-06
101,35.78211708612156,6.39343378689266e-06
102,35.918174125881556,6.187225934594809e-06
103,36.054217559937584,6.360766511607962e-06
104,36.19027459969758,6.617599531948438e-06
105,36.326331639457585,6.7959885926766395e-06
106,36.46238867921758,6.622763180459327e-06
107,36.59844571897758,6.764279159399001e-06
108,36.73448915303361,6.8105436828515435e-06
109,36.870546192793604,7.030700324485496e-06
110,37.00660323255361,7.029299404570675e-06
111,37.142660272313606,7.5014254776019345e-06
112,37.27870370636963,7.525225500930971e-06
113,37.41476074612963,7.635625828334943e-06
114,37.55081778588963,7.98050475285505e-06
115,37.686874825649625,7.703185168289526e-06
116,37.82291825970565,8.200807677426013e-06
117,37.958975299465656,8.281146912984285e-06
118,38.095032339225654,8.311287782006105e-06
119,38.23108937898566,8.627953949665957e-06
120,38.36713281304168,8.557691516252712e-06
121,38.503189852801675,8.764798664102861e-06
122,38.63924689256167,8.907544113732872e-06
123,38.77530393232168,9.062000480077245e-06
124,38.911347366377704,9.366776830648661e-06
125,39.0474044061377,9.788334100240697e-06
126,39.183461445897706,9.929599762516475e-06
127,39.3195184856577,9.958761609647085e-06
128,39.45556191971372,1.0613070069574286e-05
129,39.59161895947372,1.0685519418419053e-05
130,39.727675999233725,1.1222256816960071e-05
131,39.86373303899372,1.1560943789189634e-05
132,39.99977647304975,1.1576551238705409e-05
133,40.135833512809754,1.222135668265158e-05
134,40.27189055256975,1.2513970315277017e-05
135,40.407947592329755,1.2137853239302118e-05
136,40.54399102638577,1.3205384045821643e-05
137,40.68004806614577,1.3390057489040635e-05
138,40.81610510590577,1.315583299483133e-05
139,40.952162145665774,3.3892504993629015e-06
140,41.0882055797218,3.366595972375197e-06
141,41.2242626194818,3.2981200200216925e-06
142,41.3603196592418,3.5015844520619287e-06
143,41.4963766990018,3.2524883915608177e-06
144,41.63242013305782,3.2240544244009935e-06
145,41.76847717281782,3.400111998101696e-06
146,41.90453421257782,2.9478676954764742e-06
147,42.04059125233782,3.1362469045094056e-06
148,42.17663468639385,3.132593779062904e-06
149,42.31269172615385,2.968661563512642e-06
150,42.44874876591385,3.171538884964545e-06
151,42.584805805673845,3.049319941075912e-06
152,42.720849239729866,3.0799129742533143e-06
153,42.85690627948987,3.18363738598986e-06
154,42.99296331924987,2.955318476018485e-06
155,43.12902035900987,3.1541667810024868e-06
156,43.2650637930659,2.9688869000214663e-06
157,43.401120832825896,2.8742023598480703e-06
158,43.53717787258589,3.0114045482397574e-06
159,43.67323491234589,2.8047347431847755e-06
160,43.80927834640192,2.8007523651442965e-06
161,43.945335386161915,2.7679838727128582e-06
162,44.08139242592192,2.6319830804187976e-06
163,44.217449465681916,2.5832387765473334e-06
164,44.353492899737944,2.4429113901949624e-06
165,44.48954993949794,2.3604580574116067e-06
166,44.62560697925794,2.31730448124386e-06
167,44.761664019017935,2.28837190736567e-06
168,44.89770745307396,2.336335354857602e-06
169,45.03376449283397,2.245973152880869e-06
170,45.169821532593964,2.124802722150517e-06
171,45.30587857235397,2.0343884498700764e-06
172,45.44192200640999,1.8479239636775634e-06
173,45.577979046169986,1.7034074323055675e-06
174,45.71403608592998,1.685850726031699e-06
175,45.85009312568999,1.5890290882043541e-06
176,45.986136559746015,1.4297727179976315e-06
177,46.12219359950601,1.5733922162917636e-06
178,46.258250639266016,1.3019378194904669e-06
179,46.394307679026014,1.1936626853350468e-06
180,46.53035111308204,1.3496089191482456e-06
181,46.66640815284203,1.1917296368946221e-06
182,46.802465192602035,1.0357598320701605e-06
183,46.93852223236203,1.1633628750580068e-06
184,47.07456566641806,1.2178797452484074e-06
185,47.210622706178064,9.281298093576366e-07
186,47.34667974593806,9.231741742258303e-07
187,47.482736785698066,9.437856961589291e-07
188,47.618780219754086,6.55277392924549e-07
189,47.75483725951408,6.882129481104159e-07
190,47.89089429927408,5.920328760663785e-07
191,48.026951339034085,3.3394015325124285e-07
192,48.16299477309011,4.2859554098704996e-07
193,48.29905181285011,3.90231405807625e-07
194,48.43506041766452,1.1344502222464198e-06
195,48.43515728755569,1.134452491141485e-06
196,48.57116589237011,1.1392773738476695e-06
197,48.707222932130115,1.3715170739107045e-06
198,48.84326636618613,1.1824986877664826e-06
199,48.97932340594613,9.776659645394788e-07
200,49.11538044570613,1.067490777216241e-06
201,49.251437485466134,8.644316634192149e-07
202,49.38748091952216,7.176353687567441e-07
203,49.52353795928216,7.85953287784415e-07
204,49.65959499904216,6.105693646329008e-07
205,49.79565203880216,5.709180128999012e-07
206,49.93169547285818,5.918668433300485e-07
207,50.06775251261818,5.668824956662396e-07
208,50.20380955237818,3.416094131045187e-07
209,50.33986659213818,4.0875764531442736e-07
210,50.47591002619421,4.5854907432458585e-07
211,50.61196706595421,2.127482059048764e-07
212,50.74802410571421,1.9202592783031644e-07
213,50.884081145474205,2.111045872615089e-07
214,51.02007355950089,2.63636567914218e-07
215,51.02017559955957,2.6363709518689686e-07
216,51.15618161929023,4.0441620267064385e-07
217,51.29223865905023,3.922769853296807e-07
218,51.42829569881023,4.2706146234451553e-07
219,51.56433913286626,3.1560718516534667e-07
220,51.700396172626256,2.3600709448559615e-07
221,51.83645321238625,1.8836315311268373e-07
222,51.97251025214625,1.7500691722616803e-07
223,52.10855368620228,1.4254774460312085e-07
224,52.24455848141958,1.245876374302496e-07
225,52.244662970504976,1.2458788660544919e-07
226,52.38066776572228,2.6156892093909646e-07
227,52.516724805482276,2.393411931400178e-07
228,52.652768239538304,2.210165869055527e-07
229,52.7888252792983,1.7051917963092825e-07
230,52.92482939423041,3.608323935951886e-07
231,52.924935243886196,3.6083311525995526e-07
232,53.060939358818295,4.142546896413699e-07
233,53.19698279287432,4.879363667666782e-07
234,53.33303983263433,3.6959682830835807e-07
235,53.469096872394324,2.9771491197001293e-07
236,53.60515391215433,4.2121170508816844e-07
237,53.74119734621035,3.816404024453651e-07
238,53.877254385970346,2.6172645604001416e-07
239,54.01331142573034,2.9852538386862016e-07
240,54.14936846549035,4.201429267205494e-07
241,54.285411899546375,2.820102296244306e-07
242,54.55752597906638,1.0368593362337461e-07
243,61.36021469861866,1.3162122384584416e-08
244,68.16288981246697,9.550978133815619e-09
245,74.96557853201926,1.067968335954859e-08
246,81.76825364586757,9.604645740355843e-09
247,88.57094236541987,1.1136361778111042e-08
248,95.37363108497215,1.1353045006666338e-08
249,102.17630619882047,1.114455217981807e-08
250,108.97899491837275,1.1686585706877923e-08
251,115.78168363792504,1.229321076209554e-08
252,122.58435875177334,1.2952292160558015e-08
253,129.38704747132562,1.3653232736456308e-08
254,136.05367915111793,1.4403902688342638e-08
255,136.1897361908779,1.4419605575751215e-08
256,204.0805119238249,2.334974643994014e-08
257,272.10735830223587,3.698493796658245e-08
258,340.1341910749428,5.641636322399363e-08
259,408.1610238476498,7.614716684742573e-08
260,476.18787022606074,9.385760189521712e-08
261,544.2147029987677,1.0906109950116302e-07
262,612.2415493771787,1.2478913102603278e-07
263,680.2683821498856,1.429793584989822e-07
264,748.2952149225927,1.5982002802980905e-07
265,816.3220613010035,1.7548253303998097e-07
266,884.3488940737104,1.9016980399415634e-07
267,952.3757404521215,2.040561298684571e-07
268,1020.4025732248285,2.1728255665429492e-07
269,1088.4294196032395,2.2996049161088255e-07
270,1156.4562523759464,2.4217723916236664e-07
271,1224.4830851486533,2.5400130494551375e-07
272,1292.5099315270643,2.6548675326065084e-07
273,1360.5367642997712,2.7667660455177354e-07
274,1496.590443450889,2.9830134889445396e-07
275,1632.644122602007,3.1908261357514265e-07
276,1768.697801753125,3.391623511059787e-07
277,1904.7514672985392,3.586418330004679e-07
278,2040.805146449657,3.7759599199598883e-07
279,2176.8588256007747,3.960820771384282e-07
280,2312.912504751893,4.1414508582683984e-07
281,2448.966183903011,4.318212586322685e-07
282,2585.0198630541286,4.4914040559404204e-07
283,2721.0735285995424,4.6612749343424067e-07
284,2857.1272077506605,4.828037701772443e-07
285,2993.180886901778,4.991875518369497e-07
286,3129.2345660528963,5.152948190209066e-07
287,3265.288245204014,5.311396547235451e-07
288,3401.3419107494283,5.467345771209976e-07
289,3537.3955899005464,5.620908072677256e-07
290,3673.4492690516645,5.772184611533008e-07
291,3809.502948202782,5.921267202270209e-07
292,3945.5566273539002,6.06823961127551e-07
293,4081.610306505018,6.213178625614691e-07
294,4217.663972050432,6.356154920813381e-07
295,4353.717651201549,6.49723388063704e-07
296,4489.771330352668,6.636476086651766e-07
297,4625.825009503786,6.773937937279376e-07
298,4761.878688654903,6.909672059119072e-07
299,4897.932354200318,7.043727687483533e-07
300,5033.986033351435,7.176151065719395e-07
301,5170.039712502553,7.306985623402662e-07
302,5306.0933916536715,7.436272304740703e-07
303,5442.147070804789,7.56404977034346e-07
304,5578.200749955907,7.690354592903904e-07
305,5714.254415501321,7.815221415701771e-07
306,5850.308094652439,7.938683173572666e-07
307,5986.361773803556,8.060771129303112e-07
308,6122.415452954675,8.181515061109191e-07
309,6258.469132105793,8.30094336262619e-07
310,6394.522797651206,8.41908312235006e-07
311,6530.576476802325,8.535960284782174e-07
312,6666.630155953442,8.651599622238936e-07
313,6802.68383510456,8.766024892515088e-07
314,6938.737514255678,8.879258871812378e-07
315,7074.791179801093,8.99132341610378e-07
316,7210.8448589522095,9.102239575218292e-07
317,7346.898538103329,9.21202754809281e-07
318,7482.952217254446,9.32070679335136e-07
319,7619.005896405564,9.428296063404084e-07
320,7755.059575556682,9.534813438390315e-07
321,7891.113241102096,9.640276352785694e-07
322,8027.166920253213,9.744701694284482e-07
323,8163.220599404332,9.8481057323611e-07
324,8299.27427855545,9.950504222370372e-07
325,8435.327957706568,1.0051912408723363e-06
326,8571.38162325198,1.0152345041349307e-06
327,8707.435302403099,1.0251816461306253e-06
328,8843.488981554217,1.035034052280856e-06
329,8979.542660705336,1.0447930687550502e-06
330,9115.596339856453,1.054460002081547e-06
331,9251.650019007571,1.0640361212924902e-06
332,9387.703684552984,1.0735226575601932e-06
333,9523.757363704102,1.0829208133986445e-06
334,9659.81104285522,1.0922317529185372e-06
335,9795.86472200634,1.1014566115307998e-06
336,9931.918401157456,1.1105964940113132e-06
337,10067.97206670287,1.1196524753013666e-06
338,10204.025745853987,1.1286256073355876e-06
339,10340.079425005106,1.1375169109304067e-06
340,10476.133104156224,1.14632738364416e-06
341,10612.186783307343,1.1550579985013315e-06
342,10748.24046245846,1.1637097053179735e-06
343,10884.294128003874,1.1722834298299986e-06
344,11020.34780715499,1.1807800810344584e-06
345,11156.40148630611,1.1892005423218956e-06
346,11292.455165457228,1.1975456790307225e-06
347,11428.508844608346,1.2058163374122688e-06
348,11564.562510153759,1.2140133429190253e-06
349,11700.616189304877,1.2221375082760684e-06
350,11836.669868455994,1.230189624628759e-06
351,11972.723547607113,1.2381704674270202e-06
352,12108.777226758231,1.2460807964409713e-06
353,12244.83090590935,1.2539213556939589e-06
354,12380.884571454762,1.261692873335779e-06
355,12516.938250605881,1.2693960666326711e-06
356,12652.991929756998,1.2770316349938295e-06
357,12789.045608908116,1.2846002650759915e-06
358,12925.099288059235,1.2921026314927896e-06
359,13061.15295360465,1.2995393939556898e-06
360,13197.206632755768,1.3069112037590559e-06
361,13333.260311906884,1.3142186969612112e-06
362,13469.313991058003,1.3214624989784942e-06
363,13605.36767020912,1.3286432238134134e-06
364,16326.441198808663,1.459870517090165e-06
365,19047.514727408205,1.5701015783073038e-06
366,21768.58826961345,1.6624232121241546e-06
367,24489.661798212994,1.7392569241046287e-06
368,27210.735326812537,1.8025692990073777e-06
369,29931.808869017783,1.8539979486064742e-06
370,32652.882397617326,1.8949321848090098e-06
371,35373.95592621687,1.9265675207113415e-06
372,38095.029468422115,1.9499441034654164e-06
373,40816.10299702166,1.965974799507413e-06
374,43537.1765392269,1.975466350765625e-06
375,46258.25006782645,1.979135704193312e-06
376,48979.32359642599,1.9776230374195565e-06
377,51700.39713863123,1.971502324115638e-06
378,54421.47066723078,1.9612901239314995e-06
379,57142.54419583032,1.9474532942266594e-06
380,59863.617738035566,1.9304160476955094e-06
381,62584.691266635105,1.9105667167580644e-06
382,65305.76479523465,1.8882646105632961e-06
383,68026.8383374399,1.8638471171108035e-06
384,70747.91186603945,1.8376374872322117e-06
385,73468.98539463898,1.8099525350952551e-06
386,76190.05893684423,1.7811118929150011e-06
387,78911.13246544376,1.7514457597930932e-06
388,81632.20599404332,1.721307234947398e-06
389,84353.27953624855,1.6910761577768173e-06
390,87074.35306484811,1.661173067075342e-06
391,89795.42659344764,1.6320674775829326e-06
392,92516.5001356529,1.6042521645379059e-06
393,95237.57366425243,1.577761134071314e-06
394,97958.64719285197,1.5524521942441136e-06
395,100679.72073505721,1.5282418758606776e-06
396,103400.79426365678,1.5050546566361906e-06
397,106121.86779225631,1.4828220205858784e-06
398,108842.94133446156,1.461481646569993e-06
399,111564.0148630611,1.4409767105524974e-06
400,114285.08839166064,1.4212552814226501e-06
401,117006.16193386588,1.402269794887049e-06
402,119727.23546246543,1.3839765940567798e-06
403,122448.30900467066,1.3663355292414418e-06
404,125169.38253327021,1.3493096055781571e-06
405,127890.45606186974,1.3328646729254324e-06
406,130611.529604075,1.3169691522384181e-06
407,133332.60313267456,1.3015937930753372e-06
408,136053.6766612741,1.2867114588558003e-06
409,138774.75020347934,1.2722969351131213e-06
410,141495.8237320789,1.2583267590124741e-06
411,144216.89726067844,1.244779067090797e-06
412,146937.97080288368,1.2316334579268695e-06
413,149659.04433148322,1.2188708696580544e-06
414,156461.72816658777,1.1885258498899006e-06
415,163264.4120016923,1.1602168250765414e-06
416,170067.0958367969,1.1337304838280363e-06
417,176869.77965829574,1.1088832715084272e-06
418,183672.4634934003,1.0855162838474858e-06
419,190475.14732850486,1.0634911876577416e-06
420,197277.83116360943,1.0426869353286421e-06
421,204080.51499871397,1.0229970983484624e-06
422,210883.19883381855,1.0043276822226222e-06
423,217685.88266892312,9.865953296803997e-07
424,224488.56649042197,9.697258282369457e-07
425,231291.25032552652,9.536528668534087e-07
426,238093.93416063106,9.383169903794179e-07
427,244896.61799573564,9.236647198866115e-07
428,251699.30183084018,9.096478054748971e-07
429,258501.98566594475,8.962225900389108e-07
430,265304.6695010493,8.833494652796218e-07
431,272107.3533225482,8.709924033197174e-07
432,278910.0371576527,8.591185535238784e-07
433,285712.7209927573,8.476978930892578e-07
434,292515.4048278619,8.367029226938703e-07
435,299318.08866296645,8.261084022369333e-07
436,306120.77249807096,8.158911182124653e-07
437,312923.45633317553,8.060296808218638e-07
438,319726.1401682801,7.965043445138336e-07
439,326528.82398977893,7.872968501762184e-07
440,333331.50782488356,7.783902843863221e-07
441,340134.1916599881,7.697689558680357e-07
442,346936.87549509265,7.614182843393844e-07
443,353739.5593301972,7.533247022166216e-07
444,360542.24316530174,7.454755664084143e-07
445,367344.9270004063,7.378590790781679e-07
446,374147.6108219052,7.30464216796342e-07
447,380950.2946570097,7.232806671890186e-07
448,387752.9784921143,7.162987706799965e-07
