,E (eV),I (erg/s/cm**2)
0,1.360543186192048,0.0004368128107523223
1,2.0408011735840956,0.0005429998780722696
2,2.7210727666801198,0.0005442418590255356
3,3.401344359776144,0.00040949371503273845
4,4.081615952872168,0.00047426343896390905
5,4.761873940264215,0.0005432099206735142
6,5.4421455333602395,0.0006226642905447965
7,6.122417126456264,0.0007066563956256217
8,6.802688719552288,0.0008754315444380107
9,7.482946706944335,0.0010969334147284114
10,8.16321830004036,0.0012931553126007806
11,8.843489893136384,0.0014844015844431378
12,9.523761486232408,0.0016606206701487154
13,10.204019473624456,0.000693517218604258
14,10.884291066720479,0.0006383173458428451
15,11.564562659816504,0.0004709095675946942
16,12.244834252912527,0.0003584272954791907
17,12.92510584600855,0.00018086546876791597
18,13.7414208731606,8.35135705456631e-06
19,14.421692466256623,7.513781674940266e-06
20,15.101964059352648,6.838652443074913e-06
21,15.782222046744696,5.758088220539723e-06
22,16.46249363984072,6.426078101720796e-06
23,17.142765232936743,6.297784648179162e-06
24,17.823036826032766,6.1256459628611275e-06
25,18.503294813424816,6.093201791856982e-06
26,19.18356640652084,6.078173043256834e-06
27,19.863837999616862,5.9655622568013105e-06
28,20.544109592712886,6.329790065013293e-06
29,21.224367580104932,6.248090839400774e-06
30,21.90463917320096,5.927274622364359e-06
31,22.584910766296982,5.919314916541986e-06
32,23.26518235939301,6.912100390147823e-06
33,23.945440346785055,6.929104384446136e-06
34,24.62571193988108,6.644213368861283e-06
35,25.305983532977105,6.072811074746241e-06
36,25.986255126073125,6.15317642650988e-06
37,26.66652671916915,5.781802656176406e-06
38,27.210741272505174,5.694553459303928e-06
39,27.3467847065612,5.7431393325665025e-06
40,27.4828417463212,5.6607936649339664e-06
41,27.618898786081196,5.540402569686273e-06
42,27.7549558258412,5.610657770936407e-06
43,27.89099925989722,5.470038185373383e-06
44,28.02705629965722,5.757566437239902e-06
45,28.16311333941722,5.230420729634611e-06
46,28.299170379177223,5.975300175662069e-06
47,28.435213813233247,5.6067732612397244e-06
48,28.571270852993244,5.576808454159845e-06
49,28.70732789275325,5.770960481244861e-06
50,28.843384932513246,5.652213824546142e-06
51,28.97942836656927,5.823685365899375e-06
52,29.115485406329267,5.577710326085103e-06
53,29.25154244608927,5.5558719791355335e-06
54,29.387599485849268,5.388926676404439e-06
55,29.523642919905292,5.0601418772134974e-06
56,29.659699959665296,5.332754825619043e-06
57,29.795756999425294,5.306577673009433e-06
58,29.931814039185298,5.35902929229918e-06
59,30.067857473241315,5.378975087531574e-06
60,30.20391451300132,5.138094098491536e-06
61,30.339971552761316,5.1080880796656255e-06
62,30.47602859252132,4.911464449771114e-06
63,30.612072026577344,5.032658465851086e-06
64,30.74812906633734,4.6840512293075515e-06
65,30.884186106097346,4.8186546904322975e-06
66,31.020243145857343,4.8244139996501405e-06
67,31.156286579913367,4.6024663720330495e-06
68,31.292343619673364,4.681188823734002e-06
69,31.42840065943337,4.465401413928408e-06
70,31.564457699193365,4.6585070186721505e-06
71,31.70050113324939,4.554362453712847e-06
72,31.836558173009394,4.567931749222311e-06
73,31.97261521276939,4.314241640233239e-06
74,32.108672252529395,4.540370923105352e-06
75,32.244715686585415,4.239437593987452e-06
76,32.38077272634541,4.408580386344541e-06
77,32.51682976610541,4.181764103538279e-06
78,32.652886805865414,4.509676387756889e-06
79,32.78893023992144,4.286811907505578e-06
80,32.92498727968144,4.497245225242076e-06
81,33.06104431944144,4.588784365882166e-06
82,33.19710135920144,4.563436946250136e-06
83,33.33314479325746,4.716979429766531e-06
84,33.46920183301746,4.6219203613395105e-06
85,33.60525887277746,4.801123425468223e-06
86,33.74131591253746,4.4965086820735885e-06
87,33.87735934659349,4.697487552355406e-06
88,34.01341638635349,4.363155644243152e-06
89,34.14947342611349,4.674360529440759e-06
90,34.285530465873485,4.4427643313290735e-06
91,34.421573899929506,4.860845617842284e-06
92,34.55763093968951,4.502207249775278e-06
93,34.69368797944951,4.8049270895739765e-06
94,34.82974501920951,4.471353487424635e-06
95,34.96578845326554,5.10359489839122e-06
96,35.101845493025536,4.726016428523615e-06
97,35.23790253278553,5.2628782090435325e-06
98,35.37395957254554,5.051214791172957e-06
99,35.51000300660156,5.308121770437896e-06
100,35.646060046361555,5.200526167521264e-06
101,35.78211708612156,5.606013639877111e-06
102,35.918174125881556,5.402249681166294e-06
103,36.054217559937584,5.527670308752186e-06
104,36.19027459969758,5.805583050230074e-06
105,36.326331639457585,5.778112614454621e-06
106,36.46238867921758,5.868771263619731e-06
107,36.59844571897758,5.687899415823406e-06
108,36.73448915303361,6.143274560900289e-06
109,36.870546192793604,6.009037908824731e-06
110,37.00660323255361,6.319110313491784e-06
111,37.142660272313606,6.4628154176251346e-06
112,37.27870370636963,6.574722113878411e-06
113,37.41476074612963,6.749062900486706e-06
114,37.55081778588963,6.9133740617710875e-06
115,37.686874825649625,7.194356364418209e-06
116,37.82291825970565,7.087091495143836e-06
117,37.958975299465656,7.628675280793328e-06
118,38.095032339225654,7.292141926455324e-06
119,38.23108937898566,7.478557321203355e-06
120,38.36713281304168,7.619693515127277e-06
121,38.503189852801675,7.543968815330779e-06
122,38.63924689256167,8.119904643807306e-06
123,38.77530393232168,7.845854785399267e-06
124,38.911347366377704,8.57793370628716e-06
125,39.0474044061377,8.559783948355683e-06
126,39.183461445897706,9.111176441816462e-06
127,39.3195184856577,9.264268513538367e-06
128,39.45556191971372,9.21203254567348e-06
129,39.59161895947372,9.803395847006565e-06
130,39.727675999233725,9.809898546276718e-06
131,39.86373303899372,1.0737678337134096e-05
132,39.99977647304975,1.0747321549190656e-05
133,40.135833512809754,1.076506897078305e-05
134,40.27189055256975,1.1463435133565807e-05
135,40.407947592329755,1.1451410091619557e-05
136,40.54399102638577,1.2422842235242123e-05
137,40.68004806614577,1.2440680608596801e-05
138,40.81610510590577,1.2399090164563767e-05
139,40.952162145665774,2.9296117290486756e-06
140,41.0882055797218,3.1862856623114406e-06
141,41.2242626194818,3.0684773604492514e-06
142,41.3603196592418,3.080360390834486e-06
143,41.4963766990018,3.172617206684788e-06
144,41.63242013305782,2.846856766525843e-06
145,41.76847717281782,3.143488355599171e-06
146,41.90453421257782,2.7862333514834937e-06
147,42.04059125233782,2.7631016555771137e-06
148,42.17663468639385,3.004178820011988e-06
149,42.31269172615385,2.6628259279038564e-06
150,42.44874876591385,2.954496011143434e-06
151,42.584805805673845,2.8748240576689175e-06
152,42.720849239729866,2.8365830365913293e-06
153,42.85690627948987,3.051772992909275e-06
154,42.99296331924987,2.7268924564429197e-06
155,43.12902035900987,3.029080694983848e-06
156,43.2650637930659,2.743226437774091e-06
157,43.401120832825896,2.8129834175748036e-06
158,43.53717787258589,2.8244381569692267e-06
159,43.67323491234589,2.6096512286782336e-06
160,43.80927834640192,2.80251019268524e-06
161,43.945335386161915,2.4931534299530133e-06
162,44.08139242592192,2.5575487792274797e-06
163,44.217449465681916,2.4893639878446936e-06
164,44.353492899737944,2.2520219679248456e-06
165,44.48954993949794,2.401897852338146e-06
166,44.62560697925794,2.0810829751813096e-06
167,44.761664019017935,2.200420150192572e-06
168,44.89770745307396,2.344891197505159e-06
169,45.03376449283397,1.971499948392263e-06
170,45.169821532593964,2.1534357213051854e-06
171,45.30587857235397,1.9382886464919612e-06
172,45.44192200640999,1.6425481551706486e-06
173,45.577979046169986,1.801289348494941e-06
174,45.71403608592998,1.4437501704353056e-06
175,45.85009312568999,1.4585184351578492e-06
176,45.986136559746015,1.528659383011333e-06
177,46.12219359950601,1.2916856492330315e-06
178,46.258250639266016,1.3510247257833006e-06
179,46.394307679026014,1.2691264966716125e-06
180,46.53035111308204,1.0891666094254888e-06
181,46.66640815284203,1.3203880494361615e-06
182,46.802465192602035,9.817677739229616e-07
183,46.93852223236203,9.70014183594671e-07
184,47.07456566641806,1.2127991798856805e-06
185,47.210622706178064,8.610016432472718e-07
186,47.34667974593806,8.007593651848627e-07
187,47.482736785698066,9.633022919094742e-07
188,47.618780219754086,5.949912815835231e-07
189,47.75483725951408,6.108886812086484e-07
190,47.89089429927408,5.959638328898513e-07
191,48.026951339034085,3.061167312506123e-07
192,48.16299477309011,4.0290695542648095e-07
193,48.29905181285011,3.633241019613299e-07
194,48.43506041766452,1.2243304578431844e-06
195,48.43515728755569,1.2243329064982947e-06
196,48.57116589237011,9.901889803653494e-07
197,48.707222932130115,1.2036149548114515e-06
198,48.84326636618613,1.254136764704758e-06
199,48.97932340594613,8.401355644510368e-07
200,49.11538044570613,9.348376375918648e-07
201,49.251437485466134,9.245054778094512e-07
202,49.38748091952216,6.076441929114725e-07
203,49.52353795928216,6.754633873742856e-07
204,49.65959499904216,6.842364037690885e-07
205,49.79565203880216,4.803114494117913e-07
206,49.93169547285818,4.872179291803189e-07
207,50.06775251261818,4.778171497665035e-07
208,50.20380955237818,2.86140958527725e-07
209,50.33986659213818,3.560866881219789e-07
210,50.47591002619421,3.889452683960127e-07
211,50.61196706595421,1.754070656890309e-07
212,50.74802410571421,1.5709945489025405e-07
213,50.884081145474205,1.7585658127726395e-07
214,51.02007355950089,2.2887458247745324e-07
215,51.02017559955957,2.2887504022622149e-07
216,51.15618161929023,3.622118105927985e-07
217,51.29223865905023,3.0515223492560257e-07
218,51.42829569881023,3.6572524880716247e-07
219,51.56433913286626,2.6097614415616655e-07
220,51.700396172626256,1.749677112121792e-07
221,51.83645321238625,1.4534011223235566e-07
222,51.97251025214625,1.3366733033417828e-07
223,52.10855368620228,9.801737169727413e-08
224,52.24455848141958,8.200072952505476e-08
225,52.244662970504976,8.200089352646427e-08
226,52.38066776572228,1.7744576440071996e-07
227,52.516724805482276,1.7362432118613755e-07
228,52.652768239538304,1.3177228604656328e-07
229,52.7888252792983,9.201173875505245e-08
230,52.92482939423041,3.3415297946233093e-07
231,52.924935243886196,3.3415364776827085e-07
232,53.060939358818295,2.9177928291884617e-07
233,53.19698279287432,3.780481584447599e-07
234,53.33303983263433,3.3583121885189225e-07
235,53.469096872394324,2.3132285298586883e-07
236,53.60515391215433,3.076854864528108e-07
237,53.74119734621035,3.4008808552679283e-07
238,53.877254385970346,2.2037278737774986e-07
239,54.01331142573034,2.3871562336361696e-07
240,54.14936846549035,3.654364828830479e-07
241,54.285411899546375,2.260263099376607e-07
242,54.55752597906638,6.239694170004798e-08
243,61.36021469861866,6.156746290023836e-09
244,68.16288981246697,3.8547458982221826e-09
245,74.96557853201926,4.468570480652088e-09
246,81.76825364586757,3.6812231228070015e-09
247,88.57094236541987,4.620626102589442e-09
248,95.37363108497215,4.6207641171404575e-09
249,102.17630619882047,4.343071507521254e-09
250,108.97899491837275,4.555099159629575e-09
251,115.78168363792504,4.814730550673042e-09
252,122.58435875177334,5.084459395319924e-09
253,129.38704747132562,5.387176422083309e-09
254,136.05367915111793,5.714066635216023e-09
255,136.1897361908779,5.7209542563582635e-09
256,204.0805119238249,9.722924670734775e-09
257,272.10735830223587,1.627399363921348e-08
258,340.1341910749428,2.6880609122572694e-08
259,408.1610238476498,3.761576720045778e-08
260,476.18787022606074,4.789671145766647e-08
261,544.2147029987677,5.702220067034227e-08
262,612.2415493771787,6.631199924734924e-08
263,680.2683821498856,7.708153778630596e-08
264,748.2952149225927,8.707376708251322e-08
265,816.3220613010035,9.634982191852887e-08
266,884.3488940737104,1.0501495779564936e-07
267,952.3757404521215,1.1317003261760564e-07
268,1020.4025732248285,1.2090152782700076e-07
269,1088.4294196032395,1.282801409698057e-07
270,1156.4562523759464,1.3536247555698522e-07
271,1224.4830851486533,1.4219354633347452e-07
272,1292.5099315270643,1.4880916640704882e-07
273,1360.5367642997712,1.5523795709449953e-07
274,1496.590443450889,1.6762288213402074e-07
275,1632.644122602007,1.7948608063752477e-07
276,1768.697801753125,1.9092142841989126e-07
277,1904.7514672985392,2.0199527254137297e-07
278,2040.805146449657,2.1275615534954973e-07
279,2176.8588256007747,2.2324072186104933e-07
280,2312.912504751893,2.3347742956453996e-07
281,2448.966183903011,2.434889331470707e-07
282,2585.0198630541286,2.532936650805745e-07
283,2721.0735285995424,2.629069090190099e-07
284,2857.1272077506605,2.7234155403900474e-07
285,2993.180886901778,2.8160862013530845e-07
286,3129.2345660528963,2.9071765276513545e-07
287,3265.288245204014,2.996770094500599e-07
288,3401.3419107494283,3.084940767288667e-07
289,3537.3955899005464,3.171754429622442e-07
290,3673.4492690516645,3.257270209155365e-07
291,3809.502948202782,3.3415415650776105e-07
292,3945.5566273539002,3.424617102892359e-07
293,4081.610306505018,3.506541243080531e-07
294,4217.663972050432,3.5873547609167877e-07
295,4353.717651201549,3.667095288427677e-07
296,4489.771330352668,3.745797624803736e-07
297,4625.825009503786,3.8234940978663246e-07
298,4761.878688654903,3.90021483217327e-07
299,4897.932354200318,3.975987963344867e-07
300,5033.986033351435,4.050839884640482e-07
301,5170.039712502553,4.124795353652483e-07
302,5306.0933916536715,4.197877683421618e-07
303,5442.147070804789,4.27010887009023e-07
304,5578.200749955907,4.3415096997343935e-07
305,5714.254415501321,4.41209984897922e-07
306,5850.308094652439,4.481898010365574e-07
307,5986.361773803556,4.5509219141627634e-07
308,6122.415452954675,4.6191884403467296e-07
309,6258.469132105793,4.686713675676965e-07
310,6394.522797651206,4.7535129562589987e-07
311,6530.576476802325,4.819600967417004e-07
312,6666.630155953442,4.884991726398769e-07
313,6802.68383510456,4.949698666645579e-07
314,6938.737514255678,5.013734666424746e-07
315,7074.791179801093,5.07711207456902e-07
316,7210.8448589522095,5.139842785525892e-07
317,7346.898538103329,5.20193820645177e-07
318,7482.952217254446,5.263409326064406e-07
319,7619.005896405564,5.324266731035205e-07
320,7755.059575556682,5.38452062338043e-07
321,7891.113241102096,5.444180843673444e-07
322,8027.166920253213,5.503256915388944e-07
323,8163.220599404332,5.561758019231981e-07
324,8299.27427855545,5.619693036525296e-07
325,8435.327957706568,5.677070566020476e-07
326,8571.38162325198,5.733898921448384e-07
327,8707.435302403099,5.790186184752945e-07
328,8843.488981554217,5.845940167258092e-07
329,8979.542660705336,5.90116845350822e-07
330,9115.596339856453,5.955878402822701e-07
331,9251.650019007571,6.010077166781187e-07
332,9387.703684552984,6.063771680275084e-07
333,9523.757363704102,6.116968716077873e-07
334,9659.81104285522,6.169674831128797e-07
335,9795.86472200634,6.221896418447199e-07
336,9931.918401157456,6.273639697497831e-07
337,10067.97206670287,6.324910720083591e-07
338,10204.025745853987,6.375715410360057e-07
339,10340.079425005106,6.4260595131309e-07
340,10476.133104156224,6.475948644017779e-07
341,10612.186783307343,6.525388279286396e-07
342,10748.24046245846,6.57438376174482e-07
343,10884.294128003874,6.622940304838026e-07
344,11020.34780715499,6.671063022040988e-07
345,11156.40148630611,6.718756882709982e-07
346,11292.455165457228,6.766026756305475e-07
347,11428.508844608346,6.812877401879032e-07
348,11564.562510153759,6.859313466177735e-07
349,11700.616189304877,6.905339518264957e-07
350,11836.669868455994,6.950960008883292e-07
351,11972.723547607113,6.996179298961773e-07
352,12108.777226758231,7.041001662884198e-07
353,12244.83090590935,7.085431284887848e-07
354,12380.884571454762,7.129472258285797e-07
355,12516.938250605881,7.173128616906856e-07
356,12652.991929756998,7.216404292408713e-07
357,12789.045608908116,7.259303149749318e-07
358,12925.099288059235,7.301828976203186e-07
359,13061.15295360465,7.343985485195062e-07
360,13197.206632755768,7.38577633622501e-07
361,13333.260311906884,7.427205104684191e-07
362,13469.313991058003,7.468275307857155e-07
363,13605.36767020912,7.508990395413295e-07
364,16326.441198808663,8.253545753417124e-07
365,19047.514727408205,8.879849895731486e-07
366,21768.58826961345,9.405240034940652e-07
367,24489.661798212994,9.843312756712532e-07
368,27210.735326812537,1.0205108911527914e-06
369,29931.808869017783,1.049982244467789e-06
370,32652.882397617326,1.0735254104802141e-06
371,35373.95592621687,1.0918117790634804e-06
372,38095.029468422115,1.105425641767138e-06
373,40816.10299702166,1.1148799598272373e-06
374,43537.1765392269,1.1206282313340966e-06
375,46258.25006782645,1.1230736479224256e-06
376,48979.32359642599,1.1225763231709427e-06
377,51700.39713863123,1.1194591563004294e-06
378,54421.47066723078,1.1140127839520525e-06
379,57142.54419583032,1.1064996920244012e-06
380,59863.617738035566,1.0971579658805381e-06
381,62584.691266635105,1.0862048789523517e-06
382,65305.76479523465,1.0738405219252117e-06
383,68026.8383374399,1.0602516738870927e-06
384,70747.91186603945,1.0456160646653554e-06
385,73468.98539463898,1.0301073399400593e-06
386,76190.05893684423,1.0139002133583773e-06
387,78911.13246544376,9.971770059208727e-07
388,81632.20599404332,9.801336055366754e-07
389,84353.27953624855,9.629879609970572e-07
390,87074.35306484811,9.459853801464043e-07
391,89795.42659344764,9.294075662643476e-07
392,92516.5001356529,9.135641742822858e-07
393,95237.57366425243,8.984762127822144e-07
394,97958.64719285197,8.840615147173836e-07
395,100679.72073505721,8.702725399142079e-07
396,103400.79426365678,8.570662741182403e-07
397,106121.86779225631,8.4440369387568e-07
398,108842.94133446156,8.322493039641787e-07
399,111564.0148630611,8.20570740001337e-07
400,114285.08839166064,8.09338424340865e-07
401,117006.16193386588,7.9852526661683e-07
402,119727.23546246543,7.881064017144494e-07
403,122448.30900467066,7.78058962386276e-07
404,125169.38253327021,7.683618781861224e-07
405,127890.45606186974,7.589956985027531e-07
406,130611.529604075,7.49942437604645e-07
407,133332.60313267456,7.411854356459867e-07
408,136053.6766612741,7.32709236889539e-07
409,138774.75020347934,7.244994804890934e-07
410,141495.8237320789,7.165428028894501e-07
411,144216.89726067844,7.08826751779689e-07
412,146937.97080288368,7.013397075377641e-07
413,149659.04433148322,6.940708134720734e-07
414,156461.72816658777,6.767879044193949e-07
415,163264.4120016923,6.606645987570301e-07
416,170067.0958367969,6.455794039275309e-07
417,176869.77965829574,6.314277762376332e-07
418,183672.4634934003,6.181192111789951e-07
419,190475.14732850486,6.055749207104387e-07
420,197277.83116360943,5.937259622798623e-07
421,204080.51499871397,5.825117187683971e-07
422,210883.19883381855,5.718786557908365e-07
423,217685.88266892312,5.617792971007294e-07
424,224488.56649042197,5.521713746133472e-07
425,231291.25032552652,5.430171209202045e-07
426,238093.93416063106,5.342826731545574e-07
427,244896.61799573564,5.259375723682983e-07
428,251699.30183084018,5.179543379636725e-07
429,258501.98566594475,5.103081048521635e-07
430,265304.6695010493,5.029763140027474e-07
431,272107.3533225482,4.959384457888391e-07
432,278910.0371576527,4.891757902373839e-07
433,285712.7209927573,4.826712476899955e-07
434,292515.4048278619,4.7640915592042345e-07
435,299318.08866296645,4.703751394002662e-07
436,306120.77249807096,4.645559769193527e-07
437,312923.45633317553,4.589394859238383e-07
438,319726.1401682801,4.535144204138283e-07
439,326528.82398977893,4.482703807520062e-07
440,333331.50782488356,4.4319773412762614e-07
441,340134.1916599881,4.3828754336527716e-07
442,346936.87549509265,4.335315043424384e-07
443,353739.5593301972,4.2892188969476816e-07
444,360542.24316530174,4.244514984833761e-07
445,367344.9270004063,4.201136113625825e-07
446,374147.6108219052,4.1590194993342606e-07
447,380950.2946570097,4.1181064066857637e-07
448,387752.9784921143,4.078341820196331e-07
449,394555.66232721886,4.039674148537477e-07
