,E (eV),I (erg/s/cm**2)
0,1.360543186192048,0.0005107332070240569
1,2.0408011735840956,0.0006274877678565911
2,2.7210727666801198,0.0006180378381414412
3,3.401344359776144,0.0004806326965660757
4,4.081615952872168,0.0005554433022152112
5,4.761873940264215,0.0006386983024645939
6,5.4421455333602395,0.0007320844570142524
7,6.122417126456264,0.0008211395579124777
8,6.802688719552288,0.0010755951020369706
9,7.482946706944335,0.0012350480955826933
10,8.16321830004036,0.0014385264149716223
11,8.843489893136384,0.0016005661060637668
12,9.523761486232408,0.0017421651634730374
13,10.204019473624456,0.0007716853711128601
14,10.884291066720479,0.0006808951249609523
15,11.564562659816504,0.0005211044948092214
16,12.244834252912527,0.0003807168138529671
17,12.92510584600855,0.00018878671446343303
18,13.7414208731606,9.305724174947263e-06
19,14.421692466256623,8.399684709300948e-06
20,15.101964059352648,7.760821601456352e-06
21,15.782222046744696,6.608977865981844e-06
22,16.46249363984072,7.322937381660845e-06
23,17.142765232936743,7.264700320443785e-06
24,17.823036826032766,6.977714014274511e-06
25,18.503294813424816,6.95995891135469e-06
26,19.18356640652084,6.944210814541136e-06
27,19.863837999616862,6.832660104533876e-06
28,20.544109592712886,7.274630294779008e-06
29,21.224367580104932,7.07357650441348e-06
30,21.90463917320096,6.936578729299769e-06
31,22.584910766296982,6.71134734120039e-06
32,23.26518235939301,7.624172924906897e-06
33,23.945440346785055,7.745806180909122e-06
34,24.62571193988108,7.084735855379659e-06
35,25.305983532977105,6.682666409600561e-06
36,25.986255126073125,6.8741234219627505e-06
37,26.66652671916915,6.3996426047754075e-06
38,27.210741272505174,6.348952096268323e-06
39,27.3467847065612,6.26285122795398e-06
40,27.4828417463212,6.517533947121322e-06
41,27.618898786081196,5.921436221207725e-06
42,27.7549558258412,6.318003856735924e-06
43,27.89099925989722,5.980373652671157e-06
44,28.02705629965722,6.261593333596167e-06
45,28.16311333941722,5.940160468870887e-06
46,28.299170379177223,6.430300413041067e-06
47,28.435213813233247,6.263101763505864e-06
48,28.571270852993244,6.193713902022151e-06
49,28.70732789275325,6.434471251347657e-06
50,28.843384932513246,6.232734804199365e-06
51,28.97942836656927,6.3789239467750575e-06
52,29.115485406329267,6.130849046513569e-06
53,29.25154244608927,6.013329216699302e-06
54,29.387599485849268,5.960365003516351e-06
55,29.523642919905292,5.4766430463323095e-06
56,29.659699959665296,5.906013849909776e-06
57,29.795756999425294,5.602329184494114e-06
58,29.931814039185298,5.901411492407568e-06
59,30.067857473241315,5.4872876039779436e-06
60,30.20391451300132,5.862342360576083e-06
61,30.339971552761316,5.169081329868951e-06
62,30.47602859252132,5.791897847938534e-06
63,30.612072026577344,5.188250965026601e-06
64,30.74812906633734,5.658019425721957e-06
65,30.884186106097346,5.0216060808176735e-06
66,31.020243145857343,5.6076857861572724e-06
67,31.156286579913367,4.876172914805318e-06
68,31.292343619673364,5.407437565891444e-06
69,31.42840065943337,4.833752667631666e-06
70,31.564457699193365,5.310659644363378e-06
71,31.70050113324939,4.987888207718566e-06
72,31.836558173009394,5.249505220691308e-06
73,31.97261521276939,4.833411930579921e-06
74,32.108672252529395,5.3005069764129965e-06
75,32.244715686585415,4.771797972195939e-06
76,32.38077272634541,5.296530189615234e-06
77,32.51682976610541,4.667605080622325e-06
78,32.652886805865414,5.434570762972096e-06
79,32.78893023992144,4.759583871457109e-06
80,32.92498727968144,5.3006088357467185e-06
81,33.06104431944144,5.036663728840868e-06
82,33.19710135920144,5.2609003349572764e-06
83,33.33314479325746,5.078130991915417e-06
84,33.46920183301746,5.268351538985831e-06
85,33.60525887277746,5.160168832598505e-06
86,33.74131591253746,5.250967737048835e-06
87,33.87735934659349,5.131181461950563e-06
88,34.01341638635349,5.258181861312637e-06
89,34.14947342611349,5.162110821017214e-06
90,34.285530465873485,5.343097585997704e-06
91,34.421573899929506,5.257742033905916e-06
92,34.55763093968951,5.4814499381628245e-06
93,34.69368797944951,5.245843757888473e-06
94,34.82974501920951,5.440139987088443e-06
95,34.96578845326554,5.5572914659653406e-06
96,35.101845493025536,5.652687459089006e-06
97,35.23790253278553,5.780074675388567e-06
98,35.37395957254554,6.008259330560373e-06
99,35.51000300660156,5.999368302626371e-06
100,35.646060046361555,5.906416190067816e-06
101,35.78211708612156,6.354279751145471e-06
102,35.918174125881556,5.910258272463371e-06
103,36.054217559937584,6.315813013492424e-06
104,36.19027459969758,6.309074094268401e-06
105,36.326331639457585,6.707679568521469e-06
106,36.46238867921758,6.486201065750174e-06
107,36.59844571897758,6.6693111793512585e-06
108,36.73448915303361,6.696462191648511e-06
109,36.870546192793604,6.927494695808438e-06
110,37.00660323255361,6.9725246830500575e-06
111,37.142660272313606,7.379566222509893e-06
112,37.27870370636963,7.450134473147329e-06
113,37.41476074612963,7.22809192443353e-06
114,37.55081778588963,7.862940303916719e-06
115,37.686874825649625,7.627481149578007e-06
116,37.82291825970565,8.090122190269378e-06
117,37.958975299465656,8.184577335608269e-06
118,38.095032339225654,8.216404014487e-06
119,38.23108937898566,8.471403500338677e-06
120,38.36713281304168,8.112717122407346e-06
121,38.503189852801675,8.608821085070357e-06
122,38.63924689256167,8.781077212159632e-06
123,38.77530393232168,8.94728413887368e-06
124,38.911347366377704,9.216997330668573e-06
125,39.0474044061377,9.22233402596297e-06
126,39.183461445897706,9.727894393167917e-06
127,39.3195184856577,9.878001047104334e-06
128,39.45556191971372,1.0435022115757789e-05
129,39.59161895947372,1.0577339190355813e-05
130,39.727675999233725,1.0495082881726395e-05
131,39.86373303899372,1.1362785581021184e-05
132,39.99977647304975,1.1506101000234846e-05
133,40.135833512809754,1.2032725525083057e-05
134,40.27189055256975,1.2396023184630896e-05
135,40.407947592329755,1.2052519529256745e-05
136,40.54399102638577,1.3117856103826939e-05
137,40.68004806614577,1.3305568768581939e-05
138,40.81610510590577,1.2975290312481012e-05
139,40.952162145665774,3.3455772849676504e-06
140,41.0882055797218,3.3155082195580458e-06
141,41.2242626194818,3.2967771548139447e-06
142,41.3603196592418,3.433504412296962e-06
143,41.4963766990018,3.2545144039465066e-06
144,41.63242013305782,3.156141424479732e-06
145,41.76847717281782,3.3519216889034233e-06
146,41.90453421257782,2.9732214941649626e-06
147,42.04059125233782,3.0573550435964156e-06
148,42.17663468639385,3.1351494826258985e-06
149,42.31269172615385,2.9072973352016754e-06
150,42.44874876591385,3.1191972685759303e-06
151,42.584805805673845,3.064694569896754e-06
152,42.720849239729866,3.001117288519751e-06
153,42.85690627948987,3.194124773375375e-06
154,42.99296331924987,2.948091711846201e-06
155,43.12902035900987,3.1003050844198048e-06
156,43.2650637930659,2.9836166298880156e-06
157,43.401120832825896,2.823850518915256e-06
158,43.53717787258589,2.985582767710646e-06
159,43.67323491234589,2.792950236971541e-06
160,43.80927834640192,2.7504522058727293e-06
161,43.945335386161915,2.7726967964164767e-06
162,44.08139242592192,2.612697046391625e-06
163,44.217449465681916,2.54440828697922e-06
164,44.353492899737944,2.496315587935973e-06
165,44.48954993949794,2.3280150341518053e-06
166,44.62560697925794,2.2981808155376222e-06
167,44.761664019017935,2.2680328022956678e-06
168,44.89770745307396,2.2944590391293267e-06
169,45.03376449283397,2.2282186167726523e-06
170,45.169821532593964,2.107885871305646e-06
171,45.30587857235397,1.9856968711407846e-06
172,45.44192200640999,1.8487851180047114e-06
173,45.577979046169986,1.6829470713058058e-06
174,45.71403608592998,1.6351850264849987e-06
175,45.85009312568999,1.5972821226942298e-06
176,45.986136559746015,1.41236636153685e-06
177,46.12219359950601,1.526088168122028e-06
178,46.258250639266016,1.4403780829149533e-06
179,46.394307679026014,1.178987213492298e-06
180,46.53035111308204,1.310476196146069e-06
181,46.66640815284203,1.3473787878823394e-06
182,46.802465192602035,1.0232164231598057e-06
183,46.93852223236203,1.1352120083955016e-06
184,47.07456566641806,1.219795147962424e-06
185,47.210622706178064,9.149478075904258e-07
186,47.34667974593806,9.051569944539511e-07
187,47.482736785698066,9.45638090735373e-07
188,47.618780219754086,6.461907959801586e-07
189,47.75483725951408,6.767342567508891e-07
190,47.89089429927408,5.916171229371773e-07
191,48.026951339034085,3.2946777200474054e-07
192,48.16299477309011,4.2446925926517393e-07
193,48.29905181285011,3.857826417988406e-07
194,48.43506041766452,1.1260416037114127e-06
195,48.43515728755569,1.1260438557892806e-06
196,48.57116589237011,1.1113714971561574e-06
197,48.707222932130115,1.3502631685722212e-06
198,48.84326636618613,1.1748353080536406e-06
199,48.97932340594613,9.561265424902046e-07
200,49.11538044570613,1.047848795107062e-06
201,49.251437485466134,8.555570648017708e-07
202,49.38748091952216,7.006005608171434e-07
203,49.52353795928216,7.713784983237058e-07
204,49.65959499904216,7.69559941673225e-07
205,49.79565203880216,5.567147598408998e-07
206,49.93169547285818,5.732186721568873e-07
207,50.06775251261818,5.524877905205648e-07
208,50.20380955237818,3.3214106726055783e-07
209,50.33986659213818,3.99640305779502e-07
210,50.47591002619421,4.4697692297614433e-07
211,50.61196706595421,2.0566929708823334e-07
212,50.74802410571421,1.8549339834349433e-07
213,50.884081145474205,2.0437342029868072e-07
214,51.02007355950089,2.571234210902279e-07
215,51.02017559955957,2.5712393533662444e-07
216,51.15618161929023,3.9636059455059807e-07
217,51.29223865905023,3.778711101793277e-07
218,51.42829569881023,4.1715725520179475e-07
219,51.56433913286626,3.053188653617207e-07
220,51.700396172626256,2.250400949854299e-07
221,51.83645321238625,1.7990259539861006e-07
222,51.97251025214625,1.6681249664924284e-07
223,52.10855368620228,1.337070197576994e-07
224,52.24455848141958,1.1631304489500678e-07
225,52.244662970504976,1.1631327752102629e-07
226,52.38066776572228,2.470434765002477e-07
227,52.516724805482276,2.2979660644944265e-07
228,52.652768239538304,2.0241501617899075e-07
229,52.7888252792983,1.5623823242361303e-07
230,52.92482939423041,3.546482205768483e-07
231,52.924935243886196,3.546489298732693e-07
232,53.060939358818295,3.894824531353294e-07
233,53.19698279287432,4.807990307115009e-07
234,53.33303983263433,3.6254480214687405e-07
235,53.469096872394324,2.789601307800527e-07
236,53.60515391215433,4.032262009124226e-07
237,53.74119734621035,3.7365550854854736e-07
238,53.877254385970346,2.5371209990193154e-07
239,54.01331142573034,2.880325671486587e-07
240,54.14936846549035,4.1063216156521696e-07
241,54.285411899546375,2.7223578881104255e-07
242,54.55752597906638,9.576331890387046e-08
243,61.36021469861866,1.1781896713551251e-08
244,68.16288981246697,8.412428070916955e-09
245,74.96557853201926,9.446638447174313e-09
246,81.76825364586757,8.419346190221897e-09
247,88.57094236541987,9.846824350778799e-09
248,95.37363108497215,1.002048085518101e-08
249,102.17630619882047,9.796742093263716e-09
250,108.97899491837275,1.0276952173707665e-08
251,115.78168363792504,1.0819609466031292e-08
252,122.58435875177334,1.1406330537254115e-08
253,129.38704747132562,1.2033822352138324e-08
254,136.05367915111793,1.2706067692740749e-08
255,136.1897361908779,1.2720134616300314e-08
256,204.0805119238249,2.0758826452138043e-08
257,272.10735830223587,3.337006039862214e-08
258,340.1341910749428,5.1206641337711114e-08
259,408.1610238476498,6.95066894981461e-08
260,476.18787022606074,8.608643732912007e-08
261,544.2147029987677,1.0037846326836398e-07
262,612.2415493771787,1.1511858339452301e-07
263,680.2683821498856,1.3216497139407455e-07
264,748.2952149225927,1.4794778636005334e-07
265,816.3220613010035,1.6262008539844173e-07
266,884.3488940737104,1.763697004398473e-07
267,952.3757404521215,1.8936005260026824e-07
268,1020.4025732248285,2.017243436856184e-07
269,1088.4294196032395,2.135682401619672e-07
270,1156.4562523759464,2.2497476974424925e-07
271,1224.4830851486533,2.3600918824731477e-07
272,1292.5099315270643,2.467230425641575e-07
273,1360.5367642997712,2.571573667241099e-07
274,1496.590443450889,2.773131681965547e-07
275,1632.644122602007,2.9667402472645337e-07
276,1768.697801753125,3.153751221058516e-07
277,1904.7514672985392,3.33512749710783e-07
278,2040.805146449657,3.511580238185904e-07
279,2176.8588256007747,3.6836517526240507e-07
280,2312.912504751893,3.851767496976146e-07
281,2448.966183903011,4.0162695290397843e-07
282,2585.0198630541286,4.17743874998948e-07
283,2721.0735285995424,4.3355100763843686e-07
284,2857.1272077506605,4.4906831672332655e-07
285,2993.180886901778,4.643129924173133e-07
286,3129.2345660528963,4.793000180131643e-07
287,3265.288245204014,4.940425846516169e-07
288,3401.3419107494283,5.085524086952926e-07
289,3537.3955899005464,5.228399850531828e-07
290,3673.4492690516645,5.36914769037593e-07
291,3809.502948202782,5.507853377343792e-07
292,3945.5566273539002,5.644595126514737e-07
293,4081.610306505018,5.779444607407632e-07
294,4217.663972050432,5.912467761123055e-07
295,4353.717651201549,6.0437255672734e-07
296,4489.771330352668,6.173274516397456e-07
297,4625.825009503786,6.301167176153928e-07
298,4761.878688654903,6.427452599745554e-07
299,4897.932354200318,6.552176658482163e-07
300,5033.986033351435,6.675382434492946e-07
301,5170.039712502553,6.797110381060033e-07
302,5306.0933916536715,6.917398627217355e-07
303,5442.147070804789,7.036283176158402e-07
304,5578.200749955907,7.153798077948828e-07
305,5714.254415501321,7.269975585310875e-07
306,5850.308094652439,7.384846358327827e-07
307,5986.361773803556,7.498439494031199e-07
308,6122.415452954675,7.610782708517527e-07
309,6258.469132105793,7.721902429595166e-07
310,6394.522797651206,7.831823861312981e-07
311,6530.576476802325,7.940571147525046e-07
312,6666.630155953442,8.048167342016352e-07
313,6802.68383510456,8.154634543713935e-07
314,6938.737514255678,8.259993949231487e-07
315,7074.791179801093,8.364265889327649e-07
316,7210.8448589522095,8.467469947918719e-07
317,7346.898538103329,8.569624912641051e-07
318,7482.952217254446,8.670748887316934e-07
319,7619.005896405564,8.770859313781739e-07
320,7755.059575556682,8.869973013299262e-07
321,7891.113241102096,8.968106199127823e-07
322,8027.166920253213,9.065274578471237e-07
323,8163.220599404332,9.161493288226181e-07
324,8299.27427855545,9.256776977106157e-07
325,8435.327957706568,9.35113982525719e-07
326,8571.38162325198,9.444595551186485e-07
327,8707.435302403099,9.537157491283032e-07
328,8843.488981554217,9.6288385315969e-07
329,8979.542660705336,9.719651188967297e-07
330,9115.596339856453,9.809607613960884e-07
331,9251.650019007571,9.898719606361747e-07
332,9387.703684552984,9.986998620876251e-07
333,9523.757363704102,1.0074455834472198e-06
334,9659.81104285522,1.0161102076267713e-06
335,9795.86472200634,1.0246947899319873e-06
336,9931.918401157456,1.0332003581252414e-06
337,10067.97206670287,1.0416279115298736e-06
338,10204.025745853987,1.0499784283196148e-06
339,10340.079425005106,1.0582528579815296e-06
340,10476.133104156224,1.066452127654996e-06
341,10612.186783307343,1.0745771421533199e-06
342,10748.24046245846,1.08262878471661e-06
343,10884.294128003874,1.090607916200324e-06
344,11020.34780715499,1.0985153816516715e-06
345,11156.40148630611,1.1063520025598287e-06
346,11292.455165457228,1.1141185833796065e-06
347,11428.508844608346,1.1218159105592998e-06
348,11564.562510153759,1.1294447524995966e-06
349,11700.616189304877,1.1370058639644134e-06
350,11836.669868455994,1.1444999809465053e-06
351,11972.723547607113,1.1519278243280655e-06
352,12108.777226758231,1.1592901004117242e-06
353,12244.83090590935,1.166587501126674e-06
354,12380.884571454762,1.1738207033782027e-06
355,12516.938250605881,1.180990373681695e-06
356,12652.991929756998,1.1880971624870564e-06
357,12789.045608908116,1.1951417086688258e-06
358,12925.099288059235,1.202124638809892e-06
359,13061.15295360465,1.2090465661795142e-06
360,13197.206632755768,1.215908096782739e-06
361,13333.260311906884,1.2227098213426112e-06
362,13469.313991058003,1.2294523215244216e-06
363,13605.36767020912,1.2361361683869893e-06
364,16326.441198808663,1.3582944364533097e-06
365,19047.514727408205,1.4609278858206272e-06
366,21768.58826961345,1.546905873445892e-06
367,24489.661798212994,1.6184792338455595e-06
368,27210.735326812537,1.6774759132279745e-06
369,29931.808869017783,1.7254180785792157e-06
370,32652.882397617326,1.763597121452782e-06
371,35373.95592621687,1.7931243249866555e-06
372,38095.029468422115,1.8149665893755876e-06
373,40816.10299702166,1.8299725371152082e-06
374,43537.1765392269,1.8388921751579951e-06
375,46258.25006782645,1.8423920691350908e-06
376,48979.32359642599,1.8410674219871567e-06
377,51700.39713863123,1.8354519078050614e-06
378,54421.47066723078,1.8260258056477397e-06
379,57142.54419583032,1.8132231286489273e-06
380,59863.617738035566,1.7974381315284745e-06
381,62584.691266635105,1.7790315627377868e-06
382,65305.76479523465,1.7583369739890113e-06
383,68026.8383374399,1.7356673769472403e-06
384,70747.91186603945,1.7113222027984517e-06
385,73468.98539463898,1.6855953266463177e-06
386,76190.05893684423,1.6587824957782418e-06
387,78911.13246544376,1.6311904970481798e-06
388,81632.20599404332,1.6031463064291581e-06
389,84353.27953624855,1.5750051787749751e-06
390,87074.35306484811,1.5471608004214748e-06
391,89795.42659344764,1.520051916332208e-06
392,92516.5001356529,1.4941448751138148e-06
393,95237.57366425243,1.4694715262389551e-06
394,97958.64719285197,1.44589915933234e-06
395,100679.72073505721,1.4233500329896839e-06
396,103400.79426365678,1.4017538067460452e-06
397,106121.86779225631,1.3810466653766372e-06
398,108842.94133446156,1.3611705643976e-06
399,111564.0148630611,1.3420725782793304e-06
400,114285.08839166064,1.3237043393154485e-06
401,117006.16193386588,1.3060215463691758e-06
402,119727.23546246543,1.2889835385083156e-06
403,122448.30900467066,1.272552920736597e-06
404,125169.38253327021,1.2566952367081698e-06
405,127890.45606186974,1.2413786793103693e-06
406,130611.529604075,1.2265738361143367e-06
407,133332.60313267456,1.212253464078593e-06
408,136053.6766612741,1.1983922881301354e-06
409,138774.75020347934,1.1849668239861377e-06
410,141495.8237320789,1.1719552190688797e-06
411,144216.89726067844,1.1593371093444463e-06
412,146937.97080288368,1.1470934938509058e-06
413,149659.04433148322,1.1352066184577875e-06
414,156461.72816658777,1.1069437422589556e-06
415,163264.4120016923,1.0805771622115342e-06
416,170067.0958367969,1.0559082024013264e-06
417,176869.77965829574,1.0327659033337415e-06
418,183672.4634934003,1.0110022634489482e-06
419,190475.14732850486,9.904884412238695e-07
420,197277.83116360943,9.71111695287272e-07
421,204080.51499871397,9.527728986547921e-07
422,210883.19883381855,9.35384506962032e-07
423,217685.88266892312,9.188688820531667e-07
424,224488.56649042197,9.031569037133847e-07
425,231291.25032552652,8.881868107728033e-07
426,238093.93416063106,8.739032275137367e-07
427,244896.61799573564,8.602563443661198e-07
428,251699.30183084018,8.472012223756013e-07
429,258501.98566594475,8.346971998300441e-07
430,265304.6695010493,8.227073860077473e-07
431,272107.3533225482,8.111982251193985e-07
432,278910.0371576527,8.001391207810231e-07
433,285712.7209927573,7.895021098417753e-07
434,292515.4048278619,7.792615800301267e-07
435,299318.08866296645,7.693940230832314e-07
436,306120.77249807096,7.598778182703322e-07
437,312923.45633317553,7.506930436003567e-07
438,319726.1401682801,7.418213083246137e-07
439,326528.82398977893,7.332456059679967e-07
440,333331.50782488356,7.249501837478406e-07
441,340134.1916599881,7.169204269942114e-07
442,346936.87549509265,7.091427559607701e-07
443,353739.5593301972,7.016045339421418e-07
444,360542.24316530174,6.942939854493808e-07
445,367344.9270004063,6.872001219266196e-07
446,374147.6108219052,6.803126765644614e-07
447,380950.2946570097,6.736220444964617e-07
448,387752.9784921143,6.671192287083225e-07
