,E (eV),I (erg/s/cm**2)
0,1.360543186192048,0.0004066731529830885
1,2.0408011735840956,0.0005035337781237038
2,2.7210727666801198,0.0005007095038526989
3,3.401344359776144,0.0003840422998676804
4,4.081615952872168,0.00044262296240829937
5,4.761873940264215,0.0005131727362427868
6,5.4421455333602395,0.0005905987675944965
7,6.122417126456264,0.0006471613644903445
8,6.802688719552288,0.0007174139318117739
9,7.482946706944335,0.0010441441584811582
10,8.16321830004036,0.0012412954919171495
11,8.843489893136384,0.0014317529893276518
12,9.523761486232408,0.0016249614324086801
13,10.204019473624456,0.0006761651820721134
14,10.884291066720479,0.0006177705540194066
15,11.564562659816504,0.00047883906367446983
16,12.244834252912527,0.0003225608563208734
17,12.92510584600855,0.00016029449876498426
18,13.7414208731606,7.923652561892589e-06
19,14.421692466256623,7.1349351294991115e-06
20,15.101964059352648,6.5612683865258385e-06
21,15.782222046744696,5.4062303923338234e-06
22,16.46249363984072,6.089330812196532e-06
23,17.142765232936743,5.948094799747311e-06
24,17.823036826032766,5.858536265848818e-06
25,18.503294813424816,5.793474522298286e-06
26,19.18356640652084,5.779017850231868e-06
27,19.863837999616862,5.726835355463687e-06
28,20.544109592712886,5.995945864208007e-06
29,21.224367580104932,5.860541258042893e-06
30,21.90463917320096,5.577098902857656e-06
31,22.584910766296982,5.607264367620248e-06
32,23.26518235939301,6.595096818484932e-06
33,23.945440346785055,6.59654484412725e-06
34,24.62571193988108,6.236489573646903e-06
35,25.305983532977105,5.750224823043671e-06
36,25.986255126073125,6.020377804383157e-06
37,26.66652671916915,5.497562655506825e-06
38,27.210741272505174,5.585726563297755e-06
39,27.3467847065612,5.4270150818066835e-06
40,27.4828417463212,5.452106130498686e-06
41,27.618898786081196,5.378397531597619e-06
42,27.7549558258412,5.351358260066367e-06
43,27.89099925989722,5.3224691010950395e-06
44,28.02705629965722,5.425738640624622e-06
45,28.16311333941722,5.040349102103075e-06
46,28.299170379177223,5.819504140518392e-06
47,28.435213813233247,5.3496229412572275e-06
48,28.571270852993244,5.397954279770084e-06
49,28.70732789275325,5.557166601295359e-06
50,28.843384932513246,5.423364255805621e-06
51,28.97942836656927,5.583709574865965e-06
52,29.115485406329267,5.40048420825888e-06
53,29.25154244608927,5.432616511684484e-06
54,29.387599485849268,5.206514995706306e-06
55,29.523642919905292,4.933153931211693e-06
56,29.659699959665296,5.076516894868163e-06
57,29.795756999425294,5.118079704568238e-06
58,29.931814039185298,5.130337216650125e-06
59,30.067857473241315,5.053810610414492e-06
60,30.20391451300132,5.090762420422483e-06
61,30.339971552761316,4.884739476876248e-06
62,30.47602859252132,4.8776930680268625e-06
63,30.612072026577344,4.952176698332559e-06
64,30.74812906633734,4.4832341730618324e-06
65,30.884186106097346,4.7301203736186525e-06
66,31.020243145857343,4.436160727123161e-06
67,31.156286579913367,4.5061694842991e-06
68,31.292343619673364,4.368742182828069e-06
69,31.42840065943337,4.385429333982591e-06
70,31.564457699193365,4.398088893923483e-06
71,31.70050113324939,4.418610864656447e-06
72,31.836558173009394,4.330114818415204e-06
73,31.97261521276939,4.12753259669691e-06
74,32.108672252529395,4.371132344094747e-06
75,32.244715686585415,4.0511374871362836e-06
76,32.38077272634541,4.203907300806081e-06
77,32.51682976610541,4.00032381336067e-06
78,32.652886805865414,4.302968600072404e-06
79,32.78893023992144,4.078657205626736e-06
80,32.92498727968144,4.3143640737481335e-06
81,33.06104431944144,4.387487333658766e-06
82,33.19710135920144,4.367042498995558e-06
83,33.33314479325746,4.5427095132711495e-06
84,33.46920183301746,4.357425392952486e-06
85,33.60525887277746,4.640623952377888e-06
86,33.74131591253746,4.200427278364107e-06
87,33.87735934659349,4.5595188315871145e-06
88,34.01341638635349,4.051407021994915e-06
89,34.14947342611349,4.503161288111021e-06
90,34.285530465873485,4.17428647647388e-06
91,34.421573899929506,4.604827882564762e-06
92,34.55763093968951,4.289705519408519e-06
93,34.69368797944951,4.4811784092060055e-06
94,34.82974501920951,4.395973876476609e-06
95,34.96578845326554,4.714118620916927e-06
96,35.101845493025536,4.66369346483221e-06
97,35.23790253278553,4.850480149720512e-06
98,35.37395957254554,4.98856769943937e-06
99,35.51000300660156,4.887225643529884e-06
100,35.646060046361555,5.149046387238323e-06
101,35.78211708612156,5.173206364407946e-06
102,35.918174125881556,5.289362877019087e-06
103,36.054217559937584,5.0676020512665176e-06
104,36.19027459969758,5.640151155966312e-06
105,36.326331639457585,5.365031855924577e-06
106,36.46238867921758,5.687468035165241e-06
107,36.59844571897758,5.322931469798325e-06
108,36.73448915303361,5.9331231820049065e-06
109,36.870546192793604,5.610640035078753e-06
110,37.00660323255361,6.067860875216617e-06
111,37.142660272313606,6.106326988201913e-06
112,37.27870370636963,6.359627794334691e-06
113,37.41476074612963,6.383302873652466e-06
114,37.55081778588963,6.701549615574179e-06
115,37.686874825649625,6.770620516607592e-06
116,37.82291825970565,6.919727418457187e-06
117,37.958975299465656,7.132817011540478e-06
118,38.095032339225654,7.097478983627764e-06
119,38.23108937898566,7.282497666806632e-06
120,38.36713281304168,7.354328781697766e-06
121,38.503189852801675,7.3791206615797e-06
122,38.63924689256167,7.887535367634343e-06
123,38.77530393232168,7.769355667616969e-06
124,38.911347366377704,8.340004658329852e-06
125,39.0474044061377,8.526591232880333e-06
126,39.183461445897706,8.353103050063562e-06
127,39.3195184856577,9.106108552552754e-06
128,39.45556191971372,9.031763325918746e-06
129,39.59161895947372,9.642782431946675e-06
130,39.727675999233725,9.69877871398788e-06
131,39.86373303899372,1.0537504036538607e-05
132,39.99977647304975,1.0727009514593622e-05
133,40.135833512809754,1.045316824929017e-05
134,40.27189055256975,1.1431413252457918e-05
135,40.407947592329755,1.1179539268521396e-05
136,40.54399102638577,1.2379643597980567e-05
137,40.68004806614577,1.2237651840580634e-05
138,40.81610510590577,1.2231089490077716e-05
139,40.952162145665774,2.9115174087144634e-06
140,41.0882055797218,3.005364322112848e-06
141,41.2242626194818,3.09958591954841e-06
142,41.3603196592418,2.9039613905530125e-06
143,41.4963766990018,3.135935800194197e-06
144,41.63242013305782,2.7818378577888166e-06
145,41.76847717281782,2.9922177235910303e-06
146,41.90453421257782,2.796685162164435e-06
147,42.04059125233782,2.623430566012063e-06
148,42.17663468639385,2.9460316891301766e-06
149,42.31269172615385,2.6193445295314447e-06
150,42.44874876591385,2.8281990397286668e-06
151,42.584805805673845,2.8987756446819736e-06
152,42.720849239729866,2.6882548263635842e-06
153,42.85690627948987,3.054557325609293e-06
154,42.99296331924987,2.689086972380837e-06
155,43.12902035900987,2.932351815362126e-06
156,43.2650637930659,2.7957891307035195e-06
157,43.401120832825896,2.6468057181694625e-06
158,43.53717787258589,2.835144130085628e-06
159,43.67323491234589,2.580294926074654e-06
160,43.80927834640192,2.7079901735189445e-06
161,43.945335386161915,2.566335309513925e-06
162,44.08139242592192,2.39752155781116e-06
163,44.217449465681916,2.5211937194132135e-06
164,44.353492899737944,2.232824673101165e-06
165,44.48954993949794,2.2796112004293467e-06
166,44.62560697925794,2.2084706541045922e-06
167,44.761664019017935,2.083247904825397e-06
168,44.89770745307396,2.3610554707790066e-06
169,45.03376449283397,2.0325933353481635e-06
170,45.169821532593964,2.031942028737532e-06
171,45.30587857235397,1.9782888470536223e-06
172,45.44192200640999,1.5484920185017011e-06
173,45.577979046169986,1.721502178902569e-06
174,45.71403608592998,1.5444248682823076e-06
175,45.85009312568999,1.3659330541325623e-06
176,45.986136559746015,1.5582721468111305e-06
177,46.12219359950601,1.2777455230260873e-06
178,46.258250639266016,1.2619404045770803e-06
179,46.394307679026014,1.3188325009941595e-06
180,46.53035111308204,1.049695180238855e-06
181,46.66640815284203,1.2445067218373984e-06
182,46.802465192602035,1.1390990526734153e-06
183,46.93852223236203,9.155886574599497e-07
184,47.07456566641806,1.2054284201015314e-06
185,47.210622706178064,8.474985117218096e-07
186,47.34667974593806,7.672727015441546e-07
187,47.482736785698066,9.740184987665564e-07
188,47.618780219754086,5.795588273887741e-07
189,47.75483725951408,5.900779473823534e-07
190,47.89089429927408,6.01040280091463e-07
191,48.026951339034085,2.9948175607125505e-07
192,48.16299477309011,3.968576869676415e-07
193,48.29905181285011,3.57070882962468e-07
194,48.43506041766452,1.2228197346477616e-06
195,48.43515728755569,1.2228221802814326e-06
196,48.57116589237011,1.0895698509266212e-06
197,48.707222932130115,1.1544026729592507e-06
198,48.84326636618613,1.2391512638471247e-06
199,48.97932340594613,9.356020505240524e-07
200,49.11538044570613,8.98044251111267e-07
201,49.251437485466134,8.998298565450082e-07
202,49.38748091952216,7.109823097919982e-07
203,49.52353795928216,6.480262268109737e-07
204,49.65959499904216,6.594187030508319e-07
205,49.79565203880216,4.5759678461227597e-07
206,49.93169547285818,4.645292420476085e-07
207,50.06775251261818,4.560877972672703e-07
208,50.20380955237818,2.7380191873738204e-07
209,50.33986659213818,3.4436731327988647e-07
210,50.47591002619421,3.721062869767543e-07
211,50.61196706595421,1.6803727726826183e-07
212,50.74802410571421,1.4981138460025676e-07
213,50.884081145474205,1.686605322219387e-07
214,51.02007355950089,2.2193291764490772e-07
215,51.02017559955957,2.2193336151035833e-07
216,51.15618161929023,3.557944494304922e-07
217,51.29223865905023,2.844126873860775e-07
218,51.42829569881023,3.487823241649263e-07
219,51.56433913286626,2.49817000902024e-07
220,51.700396172626256,1.6195621889158396e-07
221,51.83645321238625,1.3739210451390206e-07
222,51.97251025214625,1.2536515209710474e-07
223,52.10855368620228,8.967551574249548e-08
224,52.24455848141958,7.395645379915338e-08
225,52.244662970504976,7.395660171201629e-08
226,52.38066776572228,1.5806192760797082e-07
227,52.516724805482276,1.622174392184805e-07
228,52.652768239538304,1.197021525072871e-07
229,52.7888252792983,7.624276699450162e-08
230,52.92482939423041,3.335842168766539e-07
231,52.924935243886196,3.335848840450687e-07
232,53.060939358818295,2.5493857914965284e-07
233,53.19698279287432,3.3580797353847784e-07
234,53.33303983263433,3.326046306723527e-07
235,53.469096872394324,2.1741870185728607e-07
236,53.60515391215433,2.7880969782106626e-07
237,53.74119734621035,3.3385731787421774e-07
238,53.877254385970346,2.141551415630667e-07
239,54.01331142573034,2.2630551601711235e-07
240,54.14936846549035,3.542097588721463e-07
241,54.285411899546375,2.1431622492350572e-07
242,54.55752597906638,5.510706398797804e-08
243,61.36021469861866,4.974155653202556e-09
244,68.16288981246697,2.921177333191048e-09
245,74.96557853201926,3.4376187608208848e-09
246,81.76825364586757,2.7129658685067008e-09
247,88.57094236541987,3.532833554956914e-09
248,95.37363108497215,3.4969887867196243e-09
249,102.17630619882047,3.2108985798698303e-09
250,108.97899491837275,3.3625949951259615e-09
251,115.78168363792504,3.5567181577338376e-09
252,122.58435875177334,3.754353816928683e-09
253,129.38704747132562,3.982143378327975e-09
254,136.05367915111793,4.229342478627973e-09
255,136.1897361908779,4.234567696288844e-09
256,204.0805119238249,7.276263747407773e-09
257,272.10735830223587,1.2287536214344147e-08
258,340.1341910749428,2.081219803186747e-08
259,408.1610238476498,2.938321211657334e-08
260,476.18787022606074,3.774788542649743e-08
261,544.2147029987677,4.5258174054604604e-08
262,612.2415493771787,5.288290591370105e-08
263,680.2683821498856,6.174021723083587e-08
264,748.2952149225927,6.996938000983904e-08
265,816.3220613010035,7.760855876112611e-08
266,884.3488940737104,8.473911089741227e-08
267,952.3757404521215,9.144243590282662e-08
268,1020.4025732248285,9.778980967006474e-08
269,1088.4294196032395,1.038402074092958e-07
270,1156.4562523759464,1.0964120331816713e-07
271,1224.4830851486533,1.1523081337631058e-07
272,1292.5099315270643,1.2063937503091737e-07
273,1360.5367642997712,1.2589117840025121e-07
274,1496.590443450889,1.3599912835811474e-07
275,1632.644122602007,1.4567170806777757e-07
276,1768.697801753125,1.5498860625863824e-07
277,1904.7514672985392,1.640060299244788e-07
278,2040.805146449657,1.7276499292870436e-07
279,2176.8588256007747,1.8129636437475428e-07
280,2312.912504751893,1.8962404159081037e-07
281,2448.966183903011,1.9776699029990434e-07
282,2585.0198630541286,2.0574059574291918e-07
283,2721.0735285995424,2.1355757949259047e-07
284,2857.1272077506605,2.212286423353389e-07
285,2993.180886901778,2.287629122552463e-07
286,3129.2345660528963,2.3616827888482658e-07
287,3265.288245204014,2.4345163721234225e-07
288,3401.3419107494283,2.5061907096255614e-07
289,3537.3955899005464,2.576759981120748e-07
290,3673.4492690516645,2.64627274752201e-07
291,3809.502948202782,2.7147728637703585e-07
292,3945.5566273539002,2.7823001595884714e-07
293,4081.610306505018,2.8488910032661804e-07
294,4217.663972050432,2.9145787514249255e-07
295,4353.717651201549,2.979394166643405e-07
296,4489.771330352668,3.0433656747871885e-07
297,4625.825009503786,3.106519674178024e-07
298,4761.878688654903,3.1688807437636424e-07
299,4897.932354200318,3.2304718349475435e-07
300,5033.986033351435,3.2913144660370483e-07
301,5170.039712502553,3.351428814514658e-07
302,5306.0933916536715,3.4108338758906444e-07
303,5442.147070804789,3.4695475645591486e-07
304,5578.200749955907,3.527586809109021e-07
305,5714.254415501321,3.5849676255313157e-07
306,5850.308094652439,3.6417052283240855e-07
307,5986.361773803556,3.6978140457530465e-07
308,6122.415452954675,3.753307810842082e-07
309,6258.469132105793,3.8081996087397474e-07
310,6394.522797651206,3.8625019142472954e-07
311,6530.576476802325,3.9162266681179473e-07
312,6666.630155953442,3.9693852678503946e-07
313,6802.68383510456,4.0219886349839995e-07
314,6938.737514255678,4.074047238061347e-07
315,7074.791179801093,4.125571116099807e-07
316,7210.8448589522095,4.176569935620838e-07
317,7346.898538103329,4.2270529655225515e-07
318,7482.952217254446,4.277029136756994e-07
319,7619.005896405564,4.3265070487018036e-07
320,7755.059575556682,4.375494995011782e-07
321,7891.113241102096,4.424000966493465e-07
322,8027.166920253213,4.4720327020031126e-07
323,8163.220599404332,4.5195976574356e-07
324,8299.27427855545,4.5667030491003967e-07
325,8435.327957706568,4.6133558600920164e-07
326,8571.38162325198,4.659562841286665e-07
327,8707.435302403099,4.7053305599526984e-07
328,8843.488981554217,4.750665356357504e-07
329,8979.542660705336,4.795573391162725e-07
330,9115.596339856453,4.840060641311981e-07
331,9251.650019007571,4.884132913052874e-07
332,9387.703684552984,4.927795839093161e-07
333,9523.757363704102,4.971054915026517e-07
334,9659.81104285522,5.013915469277456e-07
335,9795.86472200634,5.056382686998758e-07
336,9931.918401157456,5.098461622926801e-07
337,10067.97206670287,5.140157188845835e-07
338,10204.025745853987,5.18147419177748e-07
339,10340.079425005106,5.222417297921494e-07
340,10476.133104156224,5.262991065128475e-07
341,10612.186783307343,5.303199939370422e-07
342,10748.24046245846,5.343048258345369e-07
343,10884.294128003874,5.382540251082183e-07
344,11020.34780715499,5.421680069178997e-07
345,11156.40148630611,5.460471749797761e-07
346,11292.455165457228,5.498919241559206e-07
347,11428.508844608346,5.537026408479137e-07
348,11564.562510153759,5.574797022182701e-07
349,11700.616189304877,5.612234791286595e-07
350,11836.669868455994,5.649343327068139e-07
351,11972.723547607113,5.686126170516654e-07
352,12108.777226758231,5.722586789800427e-07
353,12244.83090590935,5.758728579905326e-07
354,12380.884571454762,5.794554863334602e-07
355,12516.938250605881,5.830068914358548e-07
356,12652.991929756998,5.865273924317742e-07
357,12789.045608908116,5.900173026374579e-07
358,12925.099288059235,5.934769298762791e-07
359,13061.15295360465,5.96906575027205e-07
360,13197.206632755768,6.003065355516553e-07
361,13333.260311906884,6.036771011213178e-07
362,13469.313991058003,6.070185573814635e-07
363,13605.36767020912,6.103311842135134e-07
364,16326.441198808663,6.709212813436217e-07
365,19047.514727408205,7.219102483377614e-07
366,21768.58826961345,7.647045647553767e-07
367,24489.661798212994,8.004071512461176e-07
368,27210.735326812537,8.299135763832854e-07
369,29931.808869017783,8.539695974910509e-07
370,32652.882397617326,8.732079823104843e-07
371,35373.95592621687,8.881733685083045e-07
372,38095.029468422115,8.993397759295409e-07
373,40816.10299702166,9.071233967256133e-07
374,43537.1765392269,9.118922192598286e-07
375,46258.25006782645,9.139734537207326e-07
376,48979.32359642599,9.136593905815002e-07
377,51700.39713863123,9.112121179750939e-07
378,54421.47066723078,9.068675281235291e-07
379,57142.54419583032,9.008386661905715e-07
380,59863.617738035566,8.933186882566005e-07
381,62584.691266635105,8.844837112413764e-07
382,65305.76479523465,8.744956841336319e-07
383,68026.8383374399,8.635055033387246e-07
384,70747.91186603945,8.51656392078865e-07
385,73468.98539463898,8.390880388817598e-07
386,76190.05893684423,8.25940822118462e-07
387,78911.13246544376,8.123614439583753e-07
388,81632.20599404332,7.985084026875317e-07
389,84353.27953624855,7.845583353690221e-07
390,87074.35306484811,7.70713331295924e-07
391,89795.42659344764,7.572066144753599e-07
392,92516.5001356529,7.442978096524486e-07
393,95237.57366425243,7.320047924827181e-07
394,97958.64719285197,7.202603219624829e-07
395,100679.72073505721,7.090256646541883e-07
396,103400.79426365678,6.982657741300506e-07
397,106121.86779225631,6.879488558124651e-07
398,108842.94133446156,6.780459896021517e-07
399,111564.0148630611,6.685308064219394e-07
400,114285.08839166064,6.593792075427335e-07
401,117006.16193386588,6.505691207615564e-07
402,119727.23546246543,6.420802872079985e-07
403,122448.30900467066,6.338940756255108e-07
404,125169.38253327021,6.259933184182714e-07
405,127890.45606186974,6.183621681971691e-07
406,130611.529604075,6.109859710810495e-07
407,133332.60313267456,6.0385115317371e-07
408,136053.6766612741,5.969451216371393e-07
409,138774.75020347934,5.902561761135159e-07
410,141495.8237320789,5.837734285105516e-07
411,144216.89726067844,5.774867330430406e-07
412,146937.97080288368,5.713866227630292e-07
413,149659.04433148322,5.654642517916641e-07
414,156461.72816658777,5.513829094436255e-07
415,163264.4120016923,5.382463621931157e-07
416,170067.0958367969,5.259556233817787e-07
417,176869.77965829574,5.144255149702799e-07
418,183672.4634934003,5.035822976267804e-07
419,190475.14732850486,4.93361778379569e-07
420,197277.83116360943,4.837077854242282e-07
421,204080.51499871397,4.745709309049799e-07
422,210883.19883381855,4.6590759717298185e-07
423,217685.88266892312,4.5767910225097176e-07
424,224488.56649042197,4.498510083684916e-07
425,231291.25032552652,4.4239254383763167e-07
426,238093.93416063106,4.3527611902629446e-07
427,244896.61799573564,4.2847691712821037e-07
428,251699.30183084018,4.2197254795800214e-07
429,258501.98566594475,4.157427527091481e-07
430,265304.6695010493,4.0976915123426934e-07
431,272107.3533225482,4.040350249907699e-07
432,278910.0371576527,3.9852512976010923e-07
433,285712.7209927573,3.9322553369577105e-07
434,292515.4048278619,3.881234757286693e-07
435,299318.08866296645,3.8320724339828114e-07
436,306120.77249807096,3.784660646311878e-07
437,312923.45633317553,3.738900136838772e-07
438,319726.1401682801,3.6946992752478724e-07
439,326528.82398977893,3.65197333296269e-07
440,333331.50782488356,3.6106438231468226e-07
441,340134.1916599881,3.570637931699016e-07
442,346936.87549509265,3.5318879997690055e-07
443,353739.5593301972,3.494331067649624e-07
444,360542.24316530174,3.457908466285022e-07
445,367344.9270004063,3.422565447978762e-07
446,374147.6108219052,3.3882508592516764e-07
447,380950.2946570097,3.354916846841328e-07
448,387752.9784921143,3.322518585811639e-07
449,394555.66232721886,3.2910140403157703e-07
