,E (eV),I (erg/s/cm**2)
0,1.360543186192048,0.00027256360022057807
1,2.0408011735840956,0.0003388501793706994
2,2.7210727666801198,0.0003622536954480913
3,3.401344359776144,0.000256697791500385
4,4.081615952872168,0.00029491214804852335
5,4.761873940264215,0.00033867746271580687
6,5.4421455333602395,0.00039033282357752596
7,6.122417126456264,0.00043484723457881626
8,6.802688719552288,0.00048375490784035614
9,7.482946706944335,0.0005193332027788461
10,8.16321830004036,0.0008968007678638074
11,8.843489893136384,0.0011355421640704614
12,9.523761486232408,0.001369263889445129
13,10.204019473624456,0.0005269284823732299
14,10.884291066720479,0.0004888180174104038
15,11.564562659816504,0.0003852482929406566
16,12.244834252912527,0.00027111149226866625
17,12.92510584600855,0.00014665801062594333
18,13.7414208731606,6.1509725647754486e-06
19,14.421692466256623,5.3971828711166246e-06
20,15.101964059352648,5.034723897600275e-06
21,15.782222046744696,4.118470422629411e-06
22,16.46249363984072,4.598429886924986e-06
23,17.142765232936743,4.5796053507061446e-06
24,17.823036826032766,4.418807272090393e-06
25,18.503294813424816,4.3958625074943184e-06
26,19.18356640652084,4.28661472736668e-06
27,19.863837999616862,4.3570248576673135e-06
28,20.544109592712886,4.672862484537056e-06
29,21.224367580104932,4.638294569454285e-06
30,21.90463917320096,4.323418220741036e-06
31,22.584910766296982,4.3452566142293e-06
32,23.26518235939301,5.224170996455507e-06
33,23.945440346785055,5.262828324229285e-06
34,24.62571193988108,5.035515911501911e-06
35,25.305983532977105,4.662338897108781e-06
36,25.986255126073125,4.967523113715346e-06
37,26.66652671916915,4.301319457957909e-06
38,27.210741272505174,4.165569538057015e-06
39,27.3467847065612,4.6579778734391745e-06
40,27.4828417463212,4.432607640394993e-06
41,27.618898786081196,3.9101590695345895e-06
42,27.7549558258412,4.470816246842514e-06
43,27.89099925989722,4.379215894733002e-06
44,28.02705629965722,4.015972697822003e-06
45,28.16311333941722,4.2859293972896e-06
46,28.299170379177223,4.631550254589302e-06
47,28.435213813233247,4.185926092825919e-06
48,28.571270852993244,4.656181891711669e-06
49,28.70732789275325,4.419097915960775e-06
50,28.843384932513246,4.402517310278772e-06
51,28.97942836656927,4.696411831364946e-06
52,29.115485406329267,4.298225048829229e-06
53,29.25154244608927,4.366737880500628e-06
54,29.387599485849268,4.460879336715667e-06
55,29.523642919905292,3.881158499831972e-06
56,29.659699959665296,4.093451697199127e-06
57,29.795756999425294,4.414898170428782e-06
58,29.931814039185298,4.103473277694211e-06
59,30.067857473241315,4.13742827975755e-06
60,30.20391451300132,4.2513938046148e-06
61,30.339971552761316,3.8510285912379715e-06
62,30.47602859252132,4.073911969480238e-06
63,30.612072026577344,4.098365784312661e-06
64,30.74812906633734,3.7564976309829047e-06
65,30.884186106097346,3.769101244893716e-06
66,31.020243145857343,3.834069804516954e-06
67,31.156286579913367,3.5454252684052605e-06
68,31.292343619673364,3.510850042258565e-06
69,31.42840065943337,3.6141573657335787e-06
70,31.564457699193365,3.301643199713779e-06
71,31.70050113324939,3.6353404237253913e-06
72,31.836558173009394,3.410751250786786e-06
73,31.97261521276939,3.1853676214237284e-06
74,32.108672252529395,3.4485006513587354e-06
75,32.244715686585415,3.2481763623696826e-06
76,32.38077272634541,3.0879157800221556e-06
77,32.51682976610541,3.4733758014912294e-06
78,32.652886805865414,3.0995451177320154e-06
79,32.78893023992144,3.367114486802297e-06
80,32.92498727968144,3.4652869995698537e-06
81,33.06104431944144,3.264097980726655e-06
82,33.19710135920144,3.803684226510304e-06
83,33.33314479325746,3.2518773646134393e-06
84,33.46920183301746,3.760612245068062e-06
85,33.60525887277746,3.4720604937748e-06
86,33.74131591253746,3.309166162936602e-06
87,33.87735934659349,3.4910793901613207e-06
88,34.01341638635349,2.996259595649561e-06
89,34.14947342611349,3.505394051203997e-06
90,34.285530465873485,3.1663177124114233e-06
91,34.421573899929506,3.517219931348387e-06
92,34.55763093968951,3.3669473773432255e-06
93,34.69368797944951,3.2571691205343166e-06
94,34.82974501920951,3.4433983626340826e-06
95,34.96578845326554,3.476422160180965e-06
96,35.101845493025536,3.6081701555538345e-06
97,35.23790253278553,3.706539218471951e-06
98,35.37395957254554,3.7776317916481224e-06
99,35.51000300660156,3.7442611771592087e-06
100,35.646060046361555,3.881505587366023e-06
101,35.78211708612156,3.973929156979937e-06
102,35.918174125881556,3.933717019945612e-06
103,36.054217559937584,3.948289559770828e-06
104,36.19027459969758,4.185883722467037e-06
105,36.326331639457585,4.277755073204756e-06
106,36.46238867921758,4.2030029714142085e-06
107,36.59844571897758,4.312958310933377e-06
108,36.73448915303361,4.477103297810381e-06
109,36.870546192793604,4.458767622543432e-06
110,37.00660323255361,4.658988881935304e-06
111,37.142660272313606,4.855707175771833e-06
112,37.27870370636963,4.933038750972913e-06
113,37.41476074612963,5.045212283544609e-06
114,37.55081778588963,5.291252781477123e-06
115,37.686874825649625,5.40535622628343e-06
116,37.82291825970565,5.737040032908561e-06
117,37.958975299465656,5.690189727503849e-06
118,38.095032339225654,5.905857840862094e-06
119,38.23108937898566,5.859333773731024e-06
120,38.36713281304168,6.136188800549181e-06
121,38.503189852801675,5.981604812912986e-06
122,38.63924689256167,6.6700415505089845e-06
123,38.77530393232168,6.340497667958349e-06
124,38.911347366377704,7.179516679767971e-06
125,39.0474044061377,6.936485471573227e-06
126,39.183461445897706,7.816399693223623e-06
127,39.3195184856577,7.5891543843047724e-06
128,39.45556191971372,8.639023602564213e-06
129,39.59161895947372,8.212060107211741e-06
130,39.727675999233725,9.468021715518618e-06
131,39.86373303899372,9.20589631332561e-06
132,39.99977647304975,1.0494006731151027e-05
133,40.135833512809754,1.0066951114184413e-05
134,40.27189055256975,1.1379045024577436e-05
135,40.407947592329755,1.1082409414945771e-05
136,40.54399102638577,1.2547011461195772e-05
137,40.68004806614577,1.2334241023395562e-05
138,40.81610510590577,1.2314806825978145e-05
139,40.952162145665774,2.384871696918534e-06
140,41.0882055797218,2.5883239666864048e-06
141,41.2242626194818,2.506808525627733e-06
142,41.3603196592418,2.5967853407467544e-06
143,41.4963766990018,2.4872093473987744e-06
144,41.63242013305782,2.4793072433405558e-06
145,41.76847717281782,2.460343749981478e-06
146,41.90453421257782,2.2894373169067376e-06
147,42.04059125233782,2.3446308443779296e-06
148,42.17663468639385,2.2713660736566196e-06
149,42.31269172615385,2.482343383396965e-06
150,42.44874876591385,2.188148932099862e-06
151,42.584805805673845,2.6742253205449968e-06
152,42.720849239729866,2.2844342277406654e-06
153,42.85690627948987,2.6342861676929566e-06
154,42.99296331924987,2.476528781054264e-06
155,43.12902035900987,2.5176189134761724e-06
156,43.2650637930659,2.507794230116787e-06
157,43.401120832825896,2.4311745170058237e-06
158,43.53717787258589,2.4434620737083444e-06
159,43.67323491234589,2.4538689741300914e-06
160,43.80927834640192,2.3105725124828784e-06
161,43.945335386161915,2.384367588746816e-06
162,44.08139242592192,2.2222245503124416e-06
163,44.217449465681916,2.1807551490566985e-06
164,44.353492899737944,2.1190005948981846e-06
165,44.48954993949794,1.960366011268672e-06
166,44.62560697925794,2.1021152026764194e-06
167,44.761664019017935,1.9319458077054814e-06
168,44.89770745307396,2.149338819638317e-06
169,45.03376449283397,1.9416044922392635e-06
170,45.169821532593964,1.8785196645970816e-06
171,45.30587857235397,1.780049108818581e-06
172,45.44192200640999,1.4930166761827218e-06
173,45.577979046169986,1.5498201587422273e-06
174,45.71403608592998,1.3535687487585025e-06
175,45.85009312568999,1.383268506336439e-06
176,45.986136559746015,1.2801094265672098e-06
177,46.12219359950601,1.3028533642339067e-06
178,46.258250639266016,1.1959740762018931e-06
179,46.394307679026014,1.077048208674738e-06
180,46.53035111308204,1.2117790409035552e-06
181,46.66640815284203,1.0393106188025194e-06
182,46.802465192602035,1.1190132384885791e-06
183,46.93852223236203,1.036073868674731e-06
184,47.07456566641806,9.678156440970105e-07
185,47.210622706178064,1.071079494173226e-06
186,47.34667974593806,6.37159409355038e-07
187,47.482736785698066,8.731839900697371e-07
188,47.618780219754086,7.511065984323844e-07
189,47.75483725951408,5.02935676704399e-07
190,47.89089429927408,6.128623376924115e-07
191,48.026951339034085,2.741874842083671e-07
192,48.16299477309011,3.7126687422287375e-07
193,48.29905181285011,3.317125443143071e-07
194,48.43506041766452,1.0836102884460263e-06
195,48.43515728755569,1.083612455661465e-06
196,48.57116589237011,1.086333210745659e-06
197,48.707222932130115,1.045544257273663e-06
198,48.84326636618613,1.2052993392186958e-06
199,48.97932340594613,8.919709469246523e-07
200,49.11538044570613,8.38398660640954e-07
201,49.251437485466134,7.972326470436088e-07
202,49.38748091952216,6.142488377823305e-07
203,49.52353795928216,6.425352433720479e-07
204,49.65959499904216,5.750681428123519e-07
205,49.79565203880216,5.092722698439904e-07
206,49.93169547285818,5.086476965050706e-07
207,50.06775251261818,3.8452112348076013e-07
208,50.20380955237818,3.6604496912163265e-07
209,50.33986659213818,3.046021278819552e-07
210,50.47591002619421,3.09564332701138e-07
211,50.61196706595421,3.02596805014244e-07
212,50.74802410571421,1.2639323487618596e-07
213,50.884081145474205,1.4525583456649433e-07
214,51.02007355950089,1.9832838456320837e-07
215,51.02017559955957,1.9832878121963374e-07
216,51.15618161929023,3.468387932267752e-07
217,51.29223865905023,2.232946186321711e-07
218,51.42829569881023,3.3133930345980163e-07
219,51.56433913286626,2.1792346322685871e-07
220,51.700396172626256,1.2655413514670991e-07
221,51.83645321238625,1.6067019831042926e-07
222,51.97251025214625,1.0165719468359755e-07
223,52.10855368620228,6.606372461260362e-08
224,52.24455848141958,5.0901634975948586e-08
225,52.244662970504976,5.090173677918778e-08
226,52.38066776572228,1.1070941491275214e-07
227,52.516724805482276,1.6414898955323733e-07
228,52.652768239538304,9.040232507932256e-08
229,52.7888252792983,4.39422488166965e-08
230,52.92482939423041,2.6216676760338037e-07
231,52.924935243886196,2.621672919369007e-07
232,53.060939358818295,2.5641545271907674e-07
233,53.19698279287432,2.2364041385209256e-07
234,53.33303983263433,2.8358924250427764e-07
235,53.469096872394324,2.2833878728433608e-07
236,53.60515391215433,2.062521774682118e-07
237,53.74119734621035,3.056565041144295e-07
238,53.877254385970346,2.0952051482858737e-07
239,54.01331142573034,2.239950808279561e-07
240,54.14936846549035,3.191510381880409e-07
241,54.285411899546375,1.80342182035156e-07
242,54.55752597906638,3.8524000032950907e-08
243,61.36021469861866,2.3188628359439172e-09
244,68.16288981246697,9.18219986605797e-10
245,74.96557853201926,1.1880372505917385e-09
246,81.76825364586757,6.64316979543668e-10
247,88.57094236541987,1.159481743728216e-09
248,95.37363108497215,1.0572074240438093e-09
249,102.17630619882047,7.838319080541213e-10
250,108.97899491837275,8.001501532214419e-10
251,115.78168363792504,8.431489876231591e-10
252,122.58435875177334,8.770673491385705e-10
253,129.38704747132562,9.31256230289689e-10
254,136.05367915111793,9.934994793456448e-10
255,136.1897361908779,9.948712450335142e-10
256,204.0805119238249,1.7697901645806287e-09
257,272.10735830223587,3.071473452890503e-09
258,340.1341910749428,5.682803016724397e-09
259,408.1610238476498,8.25947348447507e-09
260,476.18787022606074,1.0937906492442752e-08
261,544.2147029987677,1.3455709518566027e-08
262,612.2415493771787,1.5996622451057164e-08
263,680.2683821498856,1.8984283550084922e-08
264,748.2952149225927,2.1778934988003947e-08
265,816.3220613010035,2.4376631955724783e-08
266,884.3488940737104,2.6797049443135624e-08
267,952.3757404521215,2.9064870512266274e-08
268,1020.4025732248285,3.120380102862423e-08
269,1088.4294196032395,3.3234452098495774e-08
270,1156.4562523759464,3.51739535636261e-08
271,1224.4830851486533,3.703625448158562e-08
272,1292.5099315270643,3.8832622254125415e-08
273,1360.5367642997712,4.057214748781579e-08
274,1496.590443450889,4.3908732871250314e-08
275,1632.644122602007,4.709009061566631e-08
276,1768.697801753125,5.014619327091732e-08
277,1904.7514672985392,5.309806890177711e-08
278,2040.805146449657,5.59609427325247e-08
279,2176.8588256007747,5.8746169776132603e-08
280,2312.912504751893,6.146245479272347e-08
281,2448.966183903011,6.411663777332497e-08
282,2585.0198630541286,6.671421377513434e-08
283,2721.0735285995424,6.925968452538692e-08
284,2857.1272077506605,7.175680392220205e-08
285,2993.180886901778,7.420874860625478e-08
286,3129.2345660528963,7.661824434771286e-08
287,3265.288245204014,7.898765754979823e-08
288,3401.3419107494283,8.131906380593747e-08
289,3537.3955899005464,8.361430172653096e-08
290,3673.4492690516645,8.587501152748173e-08
291,3809.502948202782,8.810266803031187e-08
292,3945.5566273539002,9.029860578984849e-08
293,4081.610306505018,9.246403919775219e-08
294,4217.663972050432,9.460007873830472e-08
295,4353.717651201549,9.670774581427478e-08
296,4489.771330352668,9.878798202188675e-08
297,4625.825009503786,1.0084165982509514e-07
298,4761.878688654903,1.0286959015459383e-07
299,4897.932354200318,1.0487252881497637e-07
300,5033.986033351435,1.06851183367355e-07
301,5170.039712502553,1.088062163624043e-07
302,5306.0933916536715,1.1073825076989627e-07
303,5442.147070804789,1.1264787347253424e-07
304,5578.200749955907,1.1453563834984571e-07
305,5714.254415501321,1.1640206910242192e-07
306,5850.308094652439,1.1824766269453979e-07
307,5986.361773803556,1.2007289004693806e-07
308,6122.415452954675,1.2187819913914216e-07
309,6258.469132105793,1.2366401646511717e-07
310,6394.522797651206,1.2543074843237662e-07
311,6530.576476802325,1.2717878383969604e-07
312,6666.630155953442,1.289084935850381e-07
313,6802.68383510456,1.3062023286433032e-07
314,6938.737514255678,1.323143420892449e-07
315,7074.791179801093,1.339911474997354e-07
316,7210.8448589522095,1.3565096317058087e-07
317,7346.898538103329,1.3729409011147617e-07
318,7482.952217254446,1.389208182775627e-07
319,7619.005896405564,1.405314268238045e-07
320,7755.059575556682,1.4212618473524185e-07
321,7891.113241102096,1.4370535132698379e-07
322,8027.166920253213,1.4526917753015253e-07
323,8163.220599404332,1.4681790510222971e-07
324,8299.27427855545,1.4835176796167415e-07
325,8435.327957706568,1.498709923855442e-07
326,8571.38162325198,1.5137579717224415e-07
327,8707.435302403099,1.5286639504282944e-07
328,8843.488981554217,1.5434299139868469e-07
329,8979.542660705336,1.5580578568028543e-07
330,9115.596339856453,1.5725497151342348e-07
331,9251.650019007571,1.5869073677053433e-07
332,9387.703684552984,1.6011326383414595e-07
333,9523.757363704102,1.6152273059822336e-07
334,9659.81104285522,1.629193094122598e-07
335,9795.86472200634,1.6430316815298277e-07
336,9931.918401157456,1.6567447030417182e-07
337,10067.97206670287,1.6703337473284774e-07
338,10204.025745853987,1.683800369294431e-07
339,10340.079425005106,1.6971460787438217e-07
340,10476.133104156224,1.7103723489716007e-07
341,10612.186783307343,1.723480617136365e-07
342,10748.24046245846,1.7364722866252866e-07
343,10884.294128003874,1.7493487245473087e-07
344,11020.34780715499,1.7621112726468625e-07
345,11156.40148630611,1.774761235665727e-07
346,11292.455165457228,1.787299889753893e-07
347,11428.508844608346,1.7997284841586686e-07
348,11564.562510153759,1.8120482374518825e-07
349,11700.616189304877,1.8242603474674796e-07
350,11836.669868455994,1.8363659818159888e-07
351,11972.723547607113,1.8483662841613636e-07
352,12108.777226758231,1.860262374637373e-07
353,12244.83090590935,1.8720553501577538e-07
354,12380.884571454762,1.883746283786114e-07
355,12516.938250605881,1.8953362334753674e-07
356,12652.991929756998,1.906826229042025e-07
357,12789.045608908116,1.9182172837034586e-07
358,12925.099288059235,1.929510389865452e-07
359,13061.15295360465,1.940706520118667e-07
360,13197.206632755768,1.9518066347350264e-07
361,13333.260311906884,1.9628116692195235e-07
362,13469.313991058003,1.9737225447379508e-07
363,13605.36767020912,1.9845401660837344e-07
364,16326.441198808663,2.1825734350611438e-07
365,19047.514727408205,2.349534406299029e-07
366,21768.58826961345,2.4899586424114684e-07
367,24489.661798212994,2.6074013772623754e-07
368,27210.735326812537,2.7047489077040825e-07
369,29931.808869017783,2.784404655172593e-07
370,32652.882397617326,2.848408139997932e-07
371,35373.95592621687,2.8985152255017874e-07
372,38095.029468422115,2.936254610948811e-07
373,40816.10299702166,2.962969050482474e-07
374,43537.1765392269,2.9798463527213745e-07
375,46258.25006782645,2.987943272044626e-07
376,48979.32359642599,2.9882043543202906e-07
377,51700.39713863123,2.9814770601513404e-07
378,54421.47066723078,2.9685241167423857e-07
379,57142.54419583032,2.9500337514378225e-07
380,59863.617738035566,2.926628961774576e-07
381,62584.691266635105,2.8988769630612095e-07
382,65305.76479523465,2.86729647611007e-07
383,68026.8383374399,2.832366495970148e-07
384,70747.91186603945,2.7945367236264303e-07
385,73468.98539463898,2.7542400261552897e-07
386,76190.05893684423,2.7119082978781907e-07
387,78911.13246544376,2.667992994993159e-07
388,81632.20599404332,2.6229879211502673e-07
389,84353.27953624855,2.5774629668608054e-07
390,87074.35306484811,2.5320975486546304e-07
391,89795.42659344764,2.4877166045915767e-07
392,92516.5001356529,2.4452905766729e-07
393,95237.57366425243,2.4048952863294435e-07
394,97958.64719285197,2.3663025542648892e-07
395,100679.72073505721,2.329385098894638e-07
396,103400.79426365678,2.2940277568188236e-07
397,106121.86779225631,2.2601260464554334e-07
398,108842.94133446156,2.2275849354631233e-07
399,111564.0148630611,2.1963177730582352e-07
400,114285.08839166064,2.1662453693023284e-07
401,117006.16193386588,2.1372951938788195e-07
402,119727.23546246543,2.109400674059667e-07
403,122448.30900467066,2.0825005864237e-07
404,125169.38253327021,2.0565385175781845e-07
405,127890.45606186974,2.0314623918118427e-07
406,130611.529604075,2.0072240547986968e-07
407,133332.60313267456,1.983778902421915e-07
408,136053.6766612741,1.9610855542694105e-07
409,138774.75020347934,1.9391055612342294e-07
410,141495.8237320789,1.9178031451007992e-07
411,144216.89726067844,1.897144965945832e-07
412,146937.97080288368,1.8770999140611884e-07
413,149659.04433148322,1.8576389227202034e-07
414,156461.72816658777,1.811367464186701e-07
415,163264.4120016923,1.7682006454728446e-07
416,170067.0958367969,1.72781319032464e-07
417,176869.77965829574,1.6899251986165854e-07
418,183672.4634934003,1.654294359597029e-07
419,190475.14732850486,1.6207097301944852e-07
420,197277.83116360943,1.588986728606275e-07
421,204080.51499871397,1.5589630620518373e-07
422,210883.19883381855,1.5304954012468832e-07
423,217685.88266892312,1.503456635860824e-07
424,224488.56649042197,1.4777336006786237e-07
425,231291.25032552652,1.4532251793827656e-07
426,238093.93416063106,1.4298407102771243e-07
427,244896.61799573564,1.407498644631491e-07
428,251699.30183084018,1.3861254073683436e-07
429,258501.98566594475,1.3656544272514363e-07
430,265304.6695010493,1.3460253055292055e-07
431,272107.3533225482,1.3271831052113162e-07
432,278910.0371576527,1.3090777328472528e-07
433,285712.7209927573,1.2916634076284266e-07
434,292515.4048278619,1.274898196989047e-07
435,299318.08866296645,1.2587436122024621e-07
436,306120.77249807096,1.24316425661496e-07
437,312923.45633317553,1.228127513068289e-07
438,319726.1401682801,1.2136032728643805e-07
439,326528.82398977893,1.1995636925880452e-07
440,333331.50782488356,1.1859829817583595e-07
441,340134.1916599881,1.1728372135912569e-07
442,346936.87549509265,1.1601041549801454e-07
443,353739.5593301972,1.1477631171700133e-07
444,360542.24316530174,1.1357948209967552e-07
445,367344.9270004063,1.1241812768525254e-07
446,374147.6108219052,1.1129056753459275e-07
447,380950.2946570097,1.1019522912458612e-07
