,E (eV),I (erg/s/cm**2)
0,1.360543186192048,0.0003144466948214767
1,2.0408011735840956,0.0003904822165203861
2,2.7210727666801198,0.0004097562706130843
3,3.401344359776144,0.00029586618576306334
4,4.081615952872168,0.00033922869606615617
5,4.761873940264215,0.0003907706956240817
6,5.4421455333602395,0.00044778780232523934
7,6.122417126456264,0.0004994717006002624
8,6.802688719552288,0.0005573884474585992
9,7.482946706944335,0.0005878516867004497
10,8.16321830004036,0.0010259423586460865
11,8.843489893136384,0.00123438362181925
12,9.523761486232408,0.0014663218515099876
13,10.204019473624456,0.000581421623785328
14,10.884291066720479,0.0005269440508729621
15,11.564562659816504,0.0004075282576426674
16,12.244834252912527,0.00028581399756248433
17,12.92510584600855,0.00013529663121332456
18,13.7414208731606,6.6920807053848025e-06
19,14.421692466256623,5.854075802672588e-06
20,15.101964059352648,5.504113372159391e-06
21,15.782222046744696,4.486429779655787e-06
22,16.46249363984072,5.102631778033059e-06
23,17.142765232936743,5.006399037628217e-06
24,17.823036826032766,4.913910310039181e-06
25,18.503294813424816,4.81510761407434e-06
26,19.18356640652084,4.72261854528499e-06
27,19.863837999616862,4.776199643677462e-06
28,20.544109592712886,5.175027640575836e-06
29,21.224367580104932,4.955408127688478e-06
30,21.90463917320096,4.715032211413801e-06
31,22.584910766296982,4.7934087069345295e-06
32,23.26518235939301,5.709042624672127e-06
33,23.945440346785055,5.61935384025921e-06
34,24.62571193988108,5.3756535768231765e-06
35,25.305983532977105,4.928248033917248e-06
36,25.986255126073125,5.404880632493562e-06
37,26.66652671916915,4.703522113576901e-06
38,27.210741272505174,4.4542383120027805e-06
39,27.3467847065612,4.86161136840768e-06
40,27.4828417463212,4.962364436172917e-06
41,27.618898786081196,4.239185853449462e-06
42,27.7549558258412,4.693841549417245e-06
43,27.89099925989722,4.8648195095878815e-06
44,28.02705629965722,4.35951252599544e-06
45,28.16311333941722,4.50822477318042e-06
46,28.299170379177223,5.145287446025893e-06
47,28.435213813233247,4.468844125543227e-06
48,28.571270852993244,4.874784578914325e-06
49,28.70732789275325,4.941580063844017e-06
50,28.843384932513246,4.6754184762519405e-06
51,28.97942836656927,4.874951047984082e-06
52,29.115485406329267,4.805549580554345e-06
53,29.25154244608927,4.687556657310473e-06
54,29.387599485849268,4.596210553183251e-06
55,29.523642919905292,4.332028459070978e-06
56,29.659699959665296,4.420725262418865e-06
57,29.795756999425294,4.620848981348888e-06
58,29.931814039185298,4.472466919388407e-06
59,30.067857473241315,4.487527344792393e-06
60,30.20391451300132,4.400624491964241e-06
61,30.339971552761316,4.185165438076668e-06
62,30.47602859252132,4.445521959612533e-06
63,30.612072026577344,4.324647722281216e-06
64,30.74812906633734,4.041332465261318e-06
65,30.884186106097346,4.109590382377298e-06
66,31.020243145857343,4.0004999281241494e-06
67,31.156286579913367,3.939498329980716e-06
68,31.292343619673364,3.791450051651123e-06
69,31.42840065943337,3.7622638268024378e-06
70,31.564457699193365,3.7225192824225786e-06
71,31.70050113324939,3.820166212855509e-06
72,31.836558173009394,3.5712936524422396e-06
73,31.97261521276939,3.63642889361375e-06
74,32.108672252529395,3.5164934625027872e-06
75,32.244715686585415,3.737006681867209e-06
76,32.38077272634541,3.426989730916537e-06
77,32.51682976610541,3.5578878159887735e-06
78,32.652886805865414,3.623966814010901e-06
79,32.78893023992144,3.3766796653843124e-06
80,32.92498727968144,3.896891792001389e-06
81,33.06104431944144,3.5355269153490997e-06
82,33.19710135920144,3.986181472007116e-06
83,33.33314479325746,3.737099023082358e-06
84,33.46920183301746,3.8453853360254896e-06
85,33.60525887277746,3.875082072403567e-06
86,33.74131591253746,3.5284120973218705e-06
87,33.87735934659349,3.768137068486728e-06
88,34.01341638635349,3.358453683331619e-06
89,34.14947342611349,3.7534177513511325e-06
90,34.285530465873485,3.5778726183378265e-06
91,34.421573899929506,3.860041801074391e-06
92,34.55763093968951,3.6612285843101827e-06
93,34.69368797944951,3.671964108300284e-06
94,34.82974501920951,3.721763805543037e-06
95,34.96578845326554,3.851502892335838e-06
96,35.101845493025536,3.920495199258261e-06
97,35.23790253278553,3.999867930273114e-06
98,35.37395957254554,4.128360532162047e-06
99,35.51000300660156,4.075230112462589e-06
100,35.646060046361555,4.27321752340967e-06
101,35.78211708612156,4.35151376248147e-06
102,35.918174125881556,4.2998912956098345e-06
103,36.054217559937584,4.304931781599308e-06
104,36.19027459969758,4.6703504843704725e-06
105,36.326331639457585,4.645571661808911e-06
106,36.46238867921758,4.68963216521587e-06
107,36.59844571897758,4.628236650801451e-06
108,36.73448915303361,4.947501757392885e-06
109,36.870546192793604,4.846695924831186e-06
110,37.00660323255361,5.127163818692084e-06
111,37.142660272313606,5.279494999316826e-06
112,37.27870370636963,5.411417192888364e-06
113,37.41476074612963,5.478026022049305e-06
114,37.55081778588963,5.778556047865262e-06
115,37.686874825649625,5.827727089479584e-06
116,37.82291825970565,5.994070831799776e-06
117,37.958975299465656,6.407243479443277e-06
118,38.095032339225654,6.1487418696399235e-06
119,38.23108937898566,6.62031635122993e-06
120,38.36713281304168,6.380714943492813e-06
121,38.503189852801675,6.79810207745851e-06
122,38.63924689256167,6.883242336731277e-06
123,38.77530393232168,7.2261071196396905e-06
124,38.911347366377704,7.3554825738162775e-06
125,39.0474044061377,7.378509272448128e-06
126,39.183461445897706,7.959230757079272e-06
127,39.3195184856577,7.968226886733853e-06
128,39.45556191971372,8.743778671793281e-06
129,39.59161895947372,8.547704497716128e-06
130,39.727675999233725,9.503860605868408e-06
131,39.86373303899372,9.479246908394528e-06
132,39.99977647304975,1.0481198365038454e-05
133,40.135833512809754,1.0256627321651526e-05
134,40.27189055256975,1.1292080393855559e-05
135,40.407947592329755,1.1158318421086577e-05
136,40.54399102638577,1.2366700652225608e-05
137,40.68004806614577,1.2298894122698325e-05
138,40.81610510590577,1.2159840449316223e-05
139,40.952162145665774,2.5862177573399442e-06
140,41.0882055797218,2.7312187769028055e-06
141,41.2242626194818,2.666587267277887e-06
142,41.3603196592418,2.7976431567672966e-06
143,41.4963766990018,2.5800370060920924e-06
144,41.63242013305782,2.730468181455345e-06
145,41.76847717281782,2.5379171139810022e-06
146,41.90453421257782,2.527121297230096e-06
147,42.04059125233782,2.4282015425781895e-06
148,42.17663468639385,2.489233435646728e-06
149,42.31269172615385,2.5764614248134837e-06
150,42.44874876591385,2.3796375172700007e-06
151,42.584805805673845,2.7972634565544376e-06
152,42.720849239729866,2.4052201607910154e-06
153,42.85690627948987,2.781712324343783e-06
154,42.99296331924987,2.632226677185923e-06
155,43.12902035900987,2.585928332732972e-06
156,43.2650637930659,2.693563130080426e-06
157,43.401120832825896,2.4727481790885264e-06
158,43.53717787258589,2.6231682425581968e-06
159,43.67323491234589,2.5051926715303328e-06
160,43.80927834640192,2.4288254711293166e-06
161,43.945335386161915,2.5214846220011903e-06
162,44.08139242592192,2.227445133109707e-06
163,44.217449465681916,2.3630458547867434e-06
164,44.353492899737944,2.139486026448897e-06
165,44.48954993949794,2.1099834430902623e-06
166,44.62560697925794,2.109278364451687e-06
167,44.761664019017935,2.032206651134561e-06
168,44.89770745307396,2.2171681310523045e-06
169,45.03376449283397,1.971673681309413e-06
170,45.169821532593964,1.988073332683468e-06
171,45.30587857235397,1.734132725245619e-06
172,45.44192200640999,1.6401052314523143e-06
173,45.577979046169986,1.5444898544612584e-06
174,45.71403608592998,1.4319514514594012e-06
175,45.85009312568999,1.416148836651664e-06
176,45.986136559746015,1.2664933669344217e-06
177,46.12219359950601,1.4287876917579506e-06
178,46.258250639266016,1.1620222660062974e-06
179,46.394307679026014,1.1933535270836347e-06
180,46.53035111308204,1.2148310775255238e-06
181,46.66640815284203,1.0157094265821547e-06
182,46.802465192602035,1.2034585493236224e-06
183,46.93852223236203,9.987782591188274e-07
184,47.07456566641806,1.0416713789434506e-06
185,47.210622706178064,1.064584613299841e-06
186,47.34667974593806,6.703174382970665e-07
187,47.482736785698066,9.204336861872417e-07
188,47.618780219754086,7.419555731480238e-07
189,47.75483725951408,5.30462065038328e-07
190,47.89089429927408,6.217514211484005e-07
191,48.026951339034085,2.8260391439176413e-07
192,48.16299477309011,3.8084043226829334e-07
193,48.29905181285011,3.407910193573266e-07
194,48.43506041766452,1.1844263828206356e-06
195,48.43515728755569,1.184428751667785e-06
196,48.57116589237011,1.1074613885000053e-06
197,48.707222932130115,1.0991761214175047e-06
198,48.84326636618613,1.1838747321682515e-06
199,48.97932340594613,8.977378338278777e-07
200,49.11538044570613,8.884408669783919e-07
201,49.251437485466134,8.329237160743305e-07
202,49.38748091952216,6.424704445982799e-07
203,49.52353795928216,6.919169277049848e-07
204,49.65959499904216,6.052977568061955e-07
205,49.79565203880216,5.3653013027318e-07
206,49.93169547285818,4.043471152603377e-07
207,50.06775251261818,3.993860144586979e-07
208,50.20380955237818,3.8886509270652124e-07
209,50.33986659213818,3.1621701213038814e-07
210,50.47591002619421,3.278146651946806e-07
211,50.61196706595421,3.211218187554626e-07
212,50.74802410571421,1.3270871329799878e-07
213,50.884081145474205,1.517828675466974e-07
214,51.02007355950089,2.054844671071337e-07
215,51.02017559955957,2.0548487807571177e-07
216,51.15618161929023,3.490097026933675e-07
217,51.29223865905023,2.3737789813852922e-07
218,51.42829569881023,3.5058353398997443e-07
219,51.56433913286626,2.2619019160210246e-07
220,51.700396172626256,1.3343721780852513e-07
221,51.83645321238625,1.700000419401809e-07
222,51.97251025214625,1.0759002536657447e-07
223,52.10855368620228,7.158502416046552e-08
224,52.24455848141958,5.6192958265542366e-08
225,52.244662970504976,5.6193070651424944e-08
226,52.38066776572228,1.2062518918142414e-07
227,52.516724805482276,1.384033392352553e-07
228,52.652768239538304,9.677161459654274e-08
229,52.7888252792983,4.97956589828956e-08
230,52.92482939423041,3.170230452198476e-07
231,52.924935243886196,3.1702367926592003e-07
232,53.060939358818295,2.4725095636724614e-07
233,53.19698279287432,2.491152975856282e-07
234,53.33303983263433,3.284491405344521e-07
235,53.469096872394324,2.2214802277903366e-07
236,53.60515391215433,2.3382769973005144e-07
237,53.74119734621035,3.273688559232608e-07
238,53.877254385970346,2.088284698847695e-07
239,54.01331142573034,2.345936619628414e-07
240,54.14936846549035,3.2926790521277744e-07
241,54.285411899546375,1.8873481509549478e-07
242,54.55752597906638,4.1499094102735174e-08
243,61.36021469861866,2.8048031187602675e-09
244,68.16288981246697,1.2637640504484024e-09
245,74.96557853201926,1.5834236218396463e-09
246,81.76825364586757,1.0093190814606e-09
247,88.57094236541987,1.574514760611857e-09
248,95.37363108497215,1.4800416892994598e-09
249,102.17630619882047,1.1960841569699599e-09
250,108.97899491837275,1.2355914750725588e-09
251,115.78168363792504,1.305309690501693e-09
252,122.58435875177334,1.3677115069849123e-09
253,129.38704747132562,1.452800403115051e-09
254,136.05367915111793,1.5480500414524936e-09
255,136.1897361908779,1.550109792517522e-09
256,204.0805119238249,2.733966285877592e-09
257,272.10735830223587,4.715574796164636e-09
258,340.1341910749428,8.554697250596955e-09
259,408.1610238476498,1.2336652191330472e-08
260,476.18787022606074,1.6224640573358705e-08
261,544.2147029987677,1.9837398986976854e-08
262,612.2415493771787,2.3487830685989012e-08
263,680.2683821498856,2.7763940787046263e-08
264,748.2952149225927,3.1756715468664014e-08
265,816.3220613010035,3.546651746131277e-08
266,884.3488940737104,3.892430639467885e-08
267,952.3757404521215,4.2166441817606884e-08
268,1020.4025732248285,4.522701828684124e-08
269,1088.4294196032395,4.813532236016388e-08
270,1156.4562523759464,5.091552285181244e-08
271,1224.4830851486533,5.358721477522837e-08
272,1292.5099315270643,5.616618200916103e-08
273,1360.5367642997712,5.866513680429661e-08
274,1496.590443450889,6.346220683880735e-08
275,1632.644122602007,6.803997377658236e-08
276,1768.697801753125,7.244029639160338e-08
277,1904.7514672985392,7.669257381756869e-08
278,2040.805146449657,8.081812701571908e-08
279,2176.8588256007747,8.483288828272354e-08
280,2312.912504751893,8.874909709235246e-08
281,2448.966183903011,9.257639191288257e-08
282,2585.0198630541286,9.632253246990352e-08
283,2721.0735285995424,9.999388901696986e-08
284,2857.1272077506605,1.035957837773216e-07
285,2993.180886901778,1.0713272877940117e-07
286,3129.2345660528963,1.1060860199267334e-07
287,3265.288245204014,1.1402677515837791e-07
288,3401.3419107494283,1.1739020983840439e-07
289,3537.3955899005464,1.2070153251914476e-07
290,3673.4492690516645,1.2396308894461962e-07
291,3809.502948202782,1.2717699045771727e-07
292,3945.5566273539002,1.3034514915247438e-07
293,4081.610306505018,1.3346930638619182e-07
294,4217.663972050432,1.3655105575735696e-07
295,4353.717651201549,1.3959186377727452e-07
296,4489.771330352668,1.4259308321307534e-07
297,4625.825009503786,1.4555596820139296e-07
298,4761.878688654903,1.4848168489412301e-07
299,4897.932354200318,1.5137132054345839e-07
300,5033.986033351435,1.5422589357557922e-07
301,5170.039712502553,1.5704635777068798e-07
302,5306.0933916536715,1.5983361027358557e-07
303,5442.147070804789,1.6258849643944085e-07
304,5578.200749955907,1.6531181439635197e-07
305,5714.254415501321,1.6800431876976924e-07
306,5850.308094652439,1.7066672600284499e-07
307,5986.361773803556,1.7329971505713523e-07
308,6122.415452954675,1.7590393179951334e-07
309,6258.469132105793,1.7847999141153912e-07
310,6394.522797651206,1.8102848007413735e-07
311,6530.576476802325,1.835499586411134e-07
312,6666.630155953442,1.860449622358623e-07
313,6802.68383510456,1.885140034423714e-07
314,6938.737514255678,1.9095757347090846e-07
315,7074.791179801093,1.9337614322545258e-07
316,7210.8448589522095,1.9577016590011468e-07
317,7346.898538103329,1.9814007617873243e-07
318,7482.952217254446,2.0048629247028806e-07
319,7619.005896405564,2.0280921791512515e-07
320,7755.059575556682,2.0510924089230007e-07
321,7891.113241102096,2.073867357874316e-07
322,8027.166920253213,2.0964206494621663e-07
323,8163.220599404332,2.1187557749229561e-07
324,8299.27427855545,2.140876112075088e-07
325,8435.327957706568,2.1627849296734896e-07
326,8571.38162325198,2.1844853883327146e-07
327,8707.435302403099,2.2059805592316566e-07
328,8843.488981554217,2.227273410221321e-07
329,8979.542660705336,2.2483668219378796e-07
330,9115.596339856453,2.2692635914369928e-07
331,9251.650019007571,2.2899664336355456e-07
332,9387.703684552984,2.3104779825054205e-07
333,9523.757363704102,2.3308008086770496e-07
334,9659.81104285522,2.3509374021114674e-07
335,9795.86472200634,2.370890188091907e-07
336,9931.918401157456,2.390661528929668e-07
337,10067.97206670287,2.4102537202059463e-07
338,10204.025745853987,2.429669009789264e-07
339,10340.079425005106,2.448909577580436e-07
340,10476.133104156224,2.4679775534841834e-07
341,10612.186783307343,2.486875015196743e-07
342,10748.24046245846,2.5056039893125e-07
343,10884.294128003874,2.524166452272947e-07
344,11020.34780715499,2.542564342689663e-07
345,11156.40148630611,2.5607995468695753e-07
346,11292.455165457228,2.578873909807648e-07
347,11428.508844608346,2.5967892358317887e-07
348,11564.562510153759,2.6145472867113396e-07
349,11700.616189304877,2.632149794240962e-07
350,11836.669868455994,2.649598444725245e-07
351,11972.723547607113,2.666894892889635e-07
352,12108.777226758231,2.684040756401988e-07
353,12244.83090590935,2.7010376224421305e-07
354,12380.884571454762,2.717887040633747e-07
355,12516.938250605881,2.7345905412250915e-07
356,12652.991929756998,2.751149612572879e-07
357,12789.045608908116,2.7675657196629106e-07
358,12925.099288059235,2.7838402967706545e-07
359,13061.15295360465,2.7999747501706207e-07
360,13197.206632755768,2.8159704676749085e-07
361,13333.260311906884,2.8318288019600876e-07
362,13469.313991058003,2.8475510856312773e-07
363,13605.36767020912,2.863138625011345e-07
364,16326.441198808663,3.1484211961136693e-07
365,19047.514727408205,3.388813758545512e-07
366,21768.58826961345,3.5908755732694005e-07
367,24489.661798212994,3.759748752379077e-07
368,27210.735326812537,3.899608119505467e-07
369,29931.808869017783,4.013930081657461e-07
370,32652.882397617326,4.105664587753956e-07
371,35373.95592621687,4.1773511434072376e-07
372,38095.029468422115,4.2312005034034325e-07
373,40816.10299702166,4.2691542893625744e-07
374,43537.1765392269,4.2929298340691465e-07
375,46258.25006782645,4.304054758996967e-07
376,48979.32359642599,4.3038942422199877e-07
377,51700.39713863123,4.293672917618478e-07
378,54421.47066723078,4.274492753378832e-07
379,57142.54419583032,4.247348282425666e-07
380,59863.617738035566,4.213141073320798e-07
381,62584.691266635105,4.1726913716063056e-07
382,65305.76479523465,4.126750360172021e-07
383,68026.8383374399,4.0760134637230146e-07
384,70747.91186603945,4.021135853700915e-07
385,73468.98539463898,3.96275051887356e-07
386,76190.05893684423,3.901491833913205e-07
387,78911.13246544376,3.8380225465062195e-07
388,81632.20599404332,3.77306618633512e-07
389,84353.27953624855,3.707447569963587e-07
390,87074.35306484811,3.6421381742457747e-07
391,89795.42659344764,3.5783020935231206e-07
392,92516.5001356529,3.517285970265946e-07
393,95237.57366425243,3.459185151078189e-07
394,97958.64719285197,3.4036769581086017e-07
395,100679.72073505721,3.350578321564485e-07
396,103400.79426365678,3.2997236014070273e-07
397,106121.86779225631,3.2509625221487667e-07
398,108842.94133446156,3.2041583977500926e-07
399,111564.0148630611,3.159186598970423e-07
400,114285.08839166064,3.115933226836699e-07
401,117006.16193386588,3.074293960282561e-07
402,119727.23546246543,3.034173047147387e-07
403,122448.30900467066,2.9954824306518843e-07
404,125169.38253327021,2.9581409695695954e-07
405,127890.45606186974,2.922073765068039e-07
406,130611.529604075,2.887211556416834e-07
407,133332.60313267456,2.8534901885558023e-07
408,136053.6766612741,2.82085014446311e-07
409,138774.75020347934,2.789236122588953e-07
410,141495.8237320789,2.7585966623349023e-07
411,144216.89726067844,2.728883811420888e-07
412,146937.97080288368,2.700052824670503e-07
413,149659.04433148322,2.672061895358518e-07
414,156461.72816658777,2.605509205888023e-07
415,163264.4120016923,2.5434219370886647e-07
416,170067.0958367969,2.4853322420686817e-07
417,176869.77965829574,2.430837540364696e-07
418,183672.4634934003,2.3795893146732275e-07
419,190475.14732850486,2.331284165510046e-07
420,197277.83116360943,2.28565660763327e-07
421,204080.51499871397,2.2424732145452212e-07
422,210883.19883381855,2.2015278348005394e-07
423,217685.88266892312,2.1626376455053243e-07
424,224488.56649042197,2.1256398807765638e-07
425,231291.25032552652,2.0903891039283505e-07
426,238093.93416063106,2.056754915883467e-07
427,244896.61799573564,2.0246200244621223e-07
428,251699.30183084018,1.993878607091205e-07
429,258501.98566594475,1.9644349126629852e-07
430,265304.6695010493,1.9362020708439118e-07
431,272107.3533225482,1.909101063911983e-07
432,278910.0371576527,1.8830598434060223e-07
433,285712.7209927573,1.8580125620609178e-07
434,292515.4048278619,1.8338989072326524e-07
435,299318.08866296645,1.8106635217585298e-07
436,306120.77249807096,1.788255493339582e-07
437,312923.45633317553,1.7666279091737957e-07
438,319726.1401682801,1.7457374628015362e-07
439,326528.82398977893,1.7255441080071962e-07
440,333331.50782488356,1.7060107497402128e-07
441,340134.1916599881,1.6871029731854431e-07
442,346936.87549509265,1.6687888011593526e-07
443,353739.5593301972,1.6510384765843552e-07
444,360542.24316530174,1.6338242702248612e-07
445,367344.9270004063,1.6171203072726454e-07
446,374147.6108219052,1.6009024108356263e-07
447,380950.2946570097,1.5851479633934307e-07
