,E (eV),I (erg/s/cm**2)
0,1.360543186192048,0.0003777933930347001
1,2.0408011735840956,0.0004759176140783952
2,2.7210727666801198,0.0004818934930577092
3,3.401344359776144,0.00035802963514231005
4,4.081615952872168,0.0004131242634331587
5,4.761873940264215,0.00047554881125265783
6,5.4421455333602395,0.0005494576291489559
7,6.122417126456264,0.0006124884823062579
8,6.802688719552288,0.000670817123312116
9,7.482946706944335,0.0009593226274223264
10,8.16321830004036,0.0011801534731575144
11,8.843489893136384,0.0013760620316242522
12,9.523761486232408,0.001593373075205078
13,10.204019473624456,0.000647782537763608
14,10.884291066720479,0.0005868008160698969
15,11.564562659816504,0.00046227654846672344
16,12.244834252912527,0.00030531744653002096
17,12.92510584600855,0.0001539198594129716
18,13.7414208731606,7.576345756400265e-06
19,14.421692466256623,6.706097378537045e-06
20,15.101964059352648,6.316810449697858e-06
21,15.782222046744696,5.092255905284329e-06
22,16.46249363984072,5.784485427327308e-06
23,17.142765232936743,5.653508503315993e-06
24,17.823036826032766,5.586600179181676e-06
25,18.503294813424816,5.513991582993241e-06
26,19.18356640652084,5.456088340155231e-06
27,19.863837999616862,5.409620548246853e-06
28,20.544109592712886,5.794153558959896e-06
29,21.224367580104932,5.5475572145867466e-06
30,21.90463917320096,5.298329615998888e-06
31,22.584910766296982,5.364484944955616e-06
32,23.26518235939301,6.374402642362021e-06
33,23.945440346785055,6.307290666493701e-06
34,24.62571193988108,5.976548163349061e-06
35,25.305983532977105,5.6199596729953965e-06
36,25.986255126073125,5.787983707281501e-06
37,26.66652671916915,5.404843245436544e-06
38,27.210741272505174,5.3592779091344655e-06
39,27.3467847065612,5.152466286515116e-06
40,27.4828417463212,5.394639374596976e-06
41,27.618898786081196,5.0955167885538165e-06
42,27.7549558258412,5.035320830498315e-06
43,27.89099925989722,5.287456602610068e-06
44,28.02705629965722,5.18628091860195e-06
45,28.16311333941722,4.780324863209964e-06
46,28.299170379177223,5.626646750288697e-06
47,28.435213813233247,5.191738433421357e-06
48,28.571270852993244,5.227247601272782e-06
49,28.70732789275325,5.313448510328147e-06
50,28.843384932513246,5.267333864639455e-06
51,28.97942836656927,5.370228297315588e-06
52,29.115485406329267,5.220264055465602e-06
53,29.25154244608927,5.220866018364106e-06
54,29.387599485849268,4.969714707822752e-06
55,29.523642919905292,4.812459875448655e-06
56,29.659699959665296,4.929280093102626e-06
57,29.795756999425294,4.911393578118946e-06
58,29.931814039185298,4.916761791483923e-06
59,30.067857473241315,4.905241447907624e-06
60,30.20391451300132,4.926587415203204e-06
61,30.339971552761316,4.6944621137357385e-06
62,30.47602859252132,4.771481109523249e-06
63,30.612072026577344,4.664153087118631e-06
64,30.74812906633734,4.433404814715119e-06
65,30.884186106097346,4.58515662245339e-06
66,31.020243145857343,4.363398372841596e-06
67,31.156286579913367,4.36875466979462e-06
68,31.292343619673364,4.055390642144194e-06
69,31.42840065943337,4.251749300749925e-06
70,31.564457699193365,4.062806349849918e-06
71,31.70050113324939,4.352153511038063e-06
72,31.836558173009394,4.086327246980034e-06
73,31.97261521276939,4.026019075209205e-06
74,32.108672252529395,4.186498833693193e-06
75,32.244715686585415,3.872864847783011e-06
76,32.38077272634541,4.039568378913507e-06
77,32.51682976610541,3.796171219697171e-06
78,32.652886805865414,4.127853744356964e-06
79,32.78893023992144,3.848092965828841e-06
80,32.92498727968144,4.178232641455209e-06
81,33.06104431944144,4.155148499442652e-06
82,33.19710135920144,4.237959667106827e-06
83,33.33314479325746,4.330394065754091e-06
84,33.46920183301746,4.207343135550566e-06
85,33.60525887277746,4.440042531677079e-06
86,33.74131591253746,4.010836269943275e-06
87,33.87735934659349,4.296396513240259e-06
88,34.01341638635349,3.872949906668563e-06
89,34.14947342611349,4.236720992997032e-06
90,34.285530465873485,4.004512728123547e-06
91,34.421573899929506,4.32794621057674e-06
92,34.55763093968951,4.11087970203742e-06
93,34.69368797944951,4.202639643761748e-06
94,34.82974501920951,4.1378027825235914e-06
95,34.96578845326554,4.4959712666881825e-06
96,35.101845493025536,4.372479496837168e-06
97,35.23790253278553,4.670952819796716e-06
98,35.37395957254554,4.661835047650274e-06
99,35.51000300660156,4.71718579206669e-06
100,35.646060046361555,4.830775286603247e-06
101,35.78211708612156,4.992887899838502e-06
102,35.918174125881556,4.934495574776505e-06
103,36.054217559937584,4.879579512104711e-06
104,36.19027459969758,5.369723248001885e-06
105,36.326331639457585,5.185038397959284e-06
106,36.46238867921758,5.426004951492131e-06
107,36.59844571897758,5.1701376220123245e-06
108,36.73448915303361,5.682724600762959e-06
109,36.870546192793604,5.46117604331448e-06
110,37.00660323255361,5.852319989198486e-06
111,37.142660272313606,5.975006408947102e-06
112,37.27870370636963,6.148406461888533e-06
113,37.41476074612963,6.216105507375776e-06
114,37.55081778588963,6.488477189293572e-06
115,37.686874825649625,6.60063886320478e-06
116,37.82291825970565,6.7324977662096416e-06
117,37.958975299465656,6.954159975216018e-06
118,38.095032339225654,6.906838874178978e-06
119,38.23108937898566,7.099900855114065e-06
120,38.36713281304168,7.188435212041763e-06
121,38.503189852801675,7.23730996270938e-06
122,38.63924689256167,7.316921540823809e-06
123,38.77530393232168,7.638944787329885e-06
124,38.911347366377704,7.715739715195835e-06
125,39.0474044061377,8.312512957468224e-06
126,39.183461445897706,8.22604630050323e-06
127,39.3195184856577,8.896524948107015e-06
128,39.45556191971372,8.94959237664759e-06
129,39.59161895947372,9.467423879699174e-06
130,39.727675999233725,9.690171241804116e-06
131,39.86373303899372,1.0374911944608596e-05
132,39.99977647304975,1.0667476965000178e-05
133,40.135833512809754,1.0356193186445052e-05
134,40.27189055256975,1.1324558777972625e-05
135,40.407947592329755,1.1165098611432693e-05
136,40.54399102638577,1.2275483732325e-05
137,40.68004806614577,1.2297160563038642e-05
138,40.81610510590577,1.2040072372093314e-05
139,40.952162145665774,2.9385208936650913e-06
140,41.0882055797218,2.8432539097755696e-06
141,41.2242626194818,3.049950843816459e-06
142,41.3603196592418,2.832531549359357e-06
143,41.4963766990018,2.970235349978948e-06
144,41.63242013305782,2.828289010209868e-06
145,41.76847717281782,2.77570557020546e-06
146,41.90453421257782,2.8342030963640866e-06
147,42.04059125233782,2.4667950829159065e-06
148,42.17663468639385,2.8948321705738896e-06
149,42.31269172615385,2.582870075747562e-06
150,42.44874876591385,2.712837138579072e-06
151,42.584805805673845,2.883098763522433e-06
152,42.720849239729866,2.5763173199858215e-06
153,42.85690627948987,3.0316445092149866e-06
154,42.99296331924987,2.6497984139834003e-06
155,43.12902035900987,2.8568812709887786e-06
156,43.2650637930659,2.7632841543281395e-06
157,43.401120832825896,2.625090994566102e-06
158,43.53717787258589,2.76150667994787e-06
159,43.67323491234589,2.5766436336144477e-06
160,43.80927834640192,2.613452866910882e-06
161,43.945335386161915,2.566380414284403e-06
162,44.08139242592192,2.395339969873421e-06
163,44.217449465681916,2.443455341756529e-06
164,44.353492899737944,2.248912687295774e-06
165,44.48954993949794,2.146739954501454e-06
166,44.62560697925794,2.2181423274430235e-06
167,44.761664019017935,2.109004157246938e-06
168,44.89770745307396,2.2711094566041506e-06
169,45.03376449283397,2.0826059404365054e-06
170,45.169821532593964,1.9236658019908734e-06
171,45.30587857235397,1.965488317472082e-06
172,45.44192200640999,1.6260943947808748e-06
173,45.577979046169986,1.618465820203932e-06
174,45.71403608592998,1.5799663664507936e-06
175,45.85009312568999,1.2794179565541998e-06
176,45.986136559746015,1.4796026980604098e-06
177,46.12219359950601,1.3942512982209196e-06
178,46.258250639266016,1.1805300112904185e-06
179,46.394307679026014,1.3623409157184056e-06
180,46.53035111308204,1.0432545692407923e-06
181,46.66640815284203,1.1749577044369469e-06
182,46.802465192602035,1.1760599107015782e-06
183,46.93852223236203,8.794487694989529e-07
184,47.07456566641806,1.1563153409556698e-06
185,47.210622706178064,1.0143596750997052e-06
186,47.34667974593806,7.375569071724399e-07
187,47.482736785698066,9.875344684312562e-07
188,47.618780219754086,5.665332475677086e-07
189,47.75483725951408,5.718716034969901e-07
190,47.89089429927408,6.075027644216434e-07
191,48.026951339034085,2.9413235585148487e-07
192,48.16299477309011,3.920620492033967e-07
193,48.29905181285011,3.5208090928575125e-07
194,48.43506041766452,1.2238828313393268e-06
195,48.43515728755569,1.223885279099186e-06
196,48.57116589237011,1.0919995598972365e-06
197,48.707222932130115,1.1106949786661116e-06
198,48.84326636618613,1.2316271929358267e-06
199,48.97932340594613,9.235571025381162e-07
200,49.11538044570613,8.659741726558791e-07
201,49.251437485466134,8.79311235723488e-07
202,49.38748091952216,6.876040471523307e-07
203,49.52353795928216,6.245728003433477e-07
204,49.65959499904216,6.385116328464007e-07
205,49.79565203880216,5.812909218638155e-07
206,49.93169547285818,4.45155819607151e-07
207,50.06775251261818,4.377012329301623e-07
208,50.20380955237818,4.276106891885526e-07
209,50.33986659213818,3.349494249304451e-07
210,50.47591002619421,3.5784275994172084e-07
211,50.61196706595421,3.5167987330675213e-07
212,50.74802410571421,1.4394926880636404e-07
213,50.884081145474205,1.62923620087818e-07
214,51.02007355950089,2.1646608927380666e-07
215,51.02017559955957,2.1646652220561e-07
216,51.15618161929023,3.522804628619607e-07
217,51.29223865905023,2.6709200789299514e-07
218,51.42829569881023,3.3453868922445795e-07
219,51.56433913286626,2.4132069014468583e-07
220,51.700396172626256,1.5150565337272064e-07
221,51.83645321238625,1.3117686365562168e-07
222,51.97251025214625,1.1899767331860727e-07
223,52.10855368620228,8.310175147199007e-08
224,52.24455848141958,6.756634794377664e-08
225,52.244662970504976,6.75664830764317e-08
226,52.38066776572228,1.4348428343088993e-07
227,52.516724805482276,1.534629236267615e-07
228,52.652768239538304,1.1065753249626166e-07
229,52.7888252792983,6.533095966117057e-08
230,52.92482939423041,3.3607713785359366e-07
231,52.924935243886196,3.360778100078503e-07
232,53.060939358818295,2.38847356794847e-07
233,53.19698279287432,2.986086196677317e-07
234,53.33303983263433,3.3235252359054743e-07
235,53.469096872394324,2.1511225396535505e-07
236,53.60515391215433,2.5378647256625467e-07
237,53.74119734621035,3.304015884991421e-07
238,53.877254385970346,2.1068575413179962e-07
239,54.01331142573034,2.1656549512098736e-07
240,54.14936846549035,3.4554081449318504e-07
241,54.285411899546375,2.0511052398043638e-07
242,54.55752597906638,4.969230654482504e-08
243,61.36021469861866,4.109136002091855e-09
244,68.16288981246697,2.2475136139633246e-09
245,74.96557853201926,2.688547749814589e-09
246,81.76825364586757,2.0166569730874805e-09
247,88.57094236541987,2.741590701641686e-09
248,95.37363108497215,2.6804381864852388e-09
249,102.17630619882047,2.391222822970867e-09
250,108.97899491837275,2.497958712354303e-09
251,115.78168363792504,2.6427410608510726e-09
252,122.58435875177334,2.7864127692701635e-09
253,129.38704747132562,2.9576645444712924e-09
254,136.05367915111793,3.1447099626820502e-09
255,136.1897361908779,3.1486809371916023e-09
256,204.0805119238249,5.461017454480615e-09
257,272.10735830223587,9.297318902275128e-09
258,340.1341910749428,1.6113884326434455e-08
259,408.1610238476498,2.2928533493571376e-08
260,476.18787022606074,2.9692214254510072e-08
261,544.2147029987677,3.583140584314791e-08
262,612.2415493771787,4.205189720303718e-08
263,680.2683821498856,4.929421601497138e-08
264,748.2952149225927,5.603273575772583e-08
265,816.3220613010035,6.228906092931737e-08
266,884.3488940737104,6.812541582862906e-08
267,952.3757404521215,7.360693810425991e-08
268,1020.4025732248285,7.879186378850584e-08
269,1088.4294196032395,8.372894676583743e-08
270,1156.4562523759464,8.845780118189817e-08
271,1224.4830851486533,9.301022893293358e-08
272,1292.5099315270643,9.741168393810956e-08
273,1360.5367642997712,1.0168258393099754e-07
274,1496.590443450889,1.0989551138950579e-07
275,1632.644122602007,1.1774752997133281e-07
276,1768.697801753125,1.25305677528513e-07
277,1904.7514672985392,1.326171623125271e-07
278,2040.805146449657,1.3971635565227717e-07
279,2176.8588256007747,1.4662906125849166e-07
280,2312.912504751893,1.5337520134599125e-07
281,2448.966183903011,1.5997054430675665e-07
282,2585.0198630541286,1.6642784830037786e-07
283,2721.0735285995424,1.7275763669914874e-07
284,2857.1272077506605,1.7896874102346756e-07
285,2993.180886901778,1.8506867884943015e-07
286,3129.2345660528963,1.910639357610458e-07
287,3265.288245204014,1.969601698581359e-07
288,3401.3419107494283,2.0276236592749674e-07
289,3537.3955899005464,2.0847495725760355e-07
290,3673.4492690516645,2.141019125235836e-07
291,3809.502948202782,2.1964681196468245e-07
292,3945.5566273539002,2.2511290398287525e-07
293,4081.610306505018,2.3050315233601228e-07
294,4217.663972050432,2.358202732065214e-07
295,4353.717651201549,2.410667697322536e-07
296,4489.771330352668,2.46244953853263e-07
297,4625.825009503786,2.513569711185229e-07
298,4761.878688654903,2.5640481851801973e-07
299,4897.932354200318,2.613903597502901e-07
300,5033.986033351435,2.6631534171231787e-07
301,5170.039712502553,2.711814017954908e-07
302,5306.0933916536715,2.7599008102982763e-07
303,5442.147070804789,2.80742832208708e-07
304,5578.200749955907,2.854410279129565e-07
305,5714.254415501321,2.9008596646297974e-07
306,5850.308094652439,2.9467888102201296e-07
307,5986.361773803556,2.9922094048386945e-07
308,6122.415452954675,3.037132576552287e-07
309,6258.469132105793,3.0815689228801357e-07
310,6394.522797651206,3.1255285490497355e-07
311,6530.576476802325,3.169021123778915e-07
312,6666.630155953442,3.21205587575102e-07
313,6802.68383510456,3.2546416471194815e-07
314,6938.737514255678,3.2967869133649087e-07
315,7074.791179801093,3.33849979830652e-07
316,7210.8448589522095,3.3797881268842787e-07
317,7346.898538103329,3.420659401738699e-07
318,7482.952217254446,3.4611208481917187e-07
319,7619.005896405564,3.5011794271604503e-07
320,7755.059575556682,3.540841846455612e-07
321,7891.113241102096,3.580114572614712e-07
322,8027.166920253213,3.6190038664215664e-07
323,8163.220599404332,3.657515760186252e-07
324,8299.27427855545,3.6956560902790407e-07
325,8435.327957706568,3.733430504720155e-07
326,8571.38162325198,3.770844467448289e-07
327,8707.435302403099,3.8079032864207065e-07
328,8843.488981554217,3.844612092266969e-07
329,8979.542660705336,3.880975865314393e-07
330,9115.596339856453,3.9169994410194666e-07
331,9251.650019007571,3.9526875142936835e-07
332,9387.703684552984,3.9880446389074063e-07
333,9523.757363704102,4.023075260628076e-07
334,9659.81104285522,4.057783686470776e-07
335,9795.86472200634,4.092174111410815e-07
336,9931.918401157456,4.126250619439176e-07
337,10067.97206670287,4.160017184671988e-07
338,10204.025745853987,4.1934776928304227e-07
339,10340.079425005106,4.226635915791397e-07
340,10476.133104156224,4.2594955388453363e-07
341,10612.186783307343,4.2920601568857454e-07
342,10748.24046245846,4.3243332763268905e-07
343,10884.294128003874,4.356318315746217e-07
344,11020.34780715499,4.388018633184982e-07
345,11156.40148630611,4.4194374891440604e-07
346,11292.455165457228,4.4505780786311585e-07
347,11428.508844608346,4.481443523208397e-07
348,11564.562510153759,4.5120368717827465e-07
349,11700.616189304877,4.542361123409422e-07
350,11836.669868455994,4.5724191953266774e-07
351,11972.723547607113,4.602213952162081e-07
352,12108.777226758231,4.631748194418796e-07
353,12244.83090590935,4.6610246676704103e-07
354,12380.884571454762,4.690046057860797e-07
355,12516.938250605881,4.718815010895771e-07
356,12652.991929756998,4.74733410561822e-07
357,12789.045608908116,4.775605877139094e-07
358,12925.099288059235,4.803632808502183e-07
359,13061.15295360465,4.831417335395816e-07
360,13197.206632755768,4.858961859290289e-07
361,13333.260311906884,4.886268723108366e-07
362,13469.313991058003,4.913340233890899e-07
363,13605.36767020912,4.940178656601593e-07
364,16326.441198808663,5.431163864211868e-07
365,19047.514727408205,5.844514045462997e-07
366,21768.58826961345,6.191593139168979e-07
367,24489.661798212994,6.481311644688534e-07
368,27210.735326812537,6.720904571132749e-07
369,29931.808869017783,6.916396627799754e-07
370,32652.882397617326,7.072899865364519e-07
371,35373.95592621687,7.194814567328154e-07
372,38095.029468422115,7.285970756284259e-07
373,40816.10299702166,7.349731516168529e-07
374,43537.1765392269,7.389070735871338e-07
375,46258.25006782645,7.406633070891435e-07
376,48979.32359642599,7.404781253663448e-07
377,51700.39713863123,7.385634094948602e-07
378,54421.47066723078,7.351098240942424e-07
379,57142.54419583032,7.302895881529861e-07
380,59863.617738035566,7.242587908274007e-07
381,62584.691266635105,7.171596396020244e-07
382,65305.76479523465,7.091227447348006e-07
383,68026.8383374399,7.002695397775994e-07
384,70747.91186603945,6.907150418754568e-07
385,73468.98539463898,6.805711634434771e-07
386,76190.05893684423,6.699504161815853e-07
387,78911.13246544376,6.589701020323781e-07
388,81632.20599404332,6.477577154424786e-07
389,84353.27953624855,6.364558802806864e-07
390,87074.35306484811,6.252300919640397e-07
391,89795.42659344764,6.142727522540462e-07
392,92516.5001356529,6.037999985381804e-07
393,95237.57366425243,5.938270402044725e-07
394,97958.64719285197,5.8429910222548e-07
395,100679.72073505721,5.751847612240448e-07
396,103400.79426365678,5.664555849775241e-07
397,106121.86779225631,5.580857793871449e-07
398,108842.94133446156,5.500518824553784e-07
399,111564.0148630611,5.423325014929568e-07
400,114285.08839166064,5.34908086297149e-07
401,117006.16193386588,5.27760729968404e-07
402,119727.23546246543,5.208739970826947e-07
403,122448.30900467066,5.142327727629222e-07
404,125169.38253327021,5.078231293113136e-07
405,127890.45606186974,5.016322103069349e-07
406,130611.529604075,4.956481272345073e-07
407,133332.60313267456,4.898598681971462e-07
408,136053.6766612741,4.842572169647583e-07
409,138774.75020347934,4.788306812373651e-07
410,141495.8237320789,4.7357142790288737e-07
411,144216.89726067844,4.6847122605435136e-07
412,146937.97080288368,4.6352239517915087e-07
413,149659.04433148322,4.5871775915563573e-07
414,156461.72816658777,4.472940036919886e-07
415,163264.4120016923,4.3663673280644866e-07
416,170067.0958367969,4.2666564150269294e-07
417,176869.77965829574,4.173116271477584e-07
418,183672.4634934003,4.085148673287505e-07
419,190475.14732850486,4.002232839747493e-07
420,197277.83116360943,3.9239130668490635e-07
421,204080.51499871397,3.849788683617334e-07
422,210883.19883381855,3.779505832607835e-07
423,217685.88266892312,3.712750699461505e-07
424,224488.56649042197,3.6492438997998583e-07
425,231291.25032552652,3.588735791748885e-07
426,238093.93416063106,3.5310025491396917e-07
427,244896.61799573564,3.475842839915695e-07
428,251699.30183084018,3.423075019144097e-07
429,258501.98566594475,3.3725347337685044e-07
430,265304.6695010493,3.324072870039849e-07
431,272107.3533225482,3.2775537957683344e-07
432,278910.0371576527,3.232853840134773e-07
433,285712.7209927573,3.189859976117325e-07
434,292515.4048278619,3.1484686792360563e-07
435,299318.08866296645,3.108584927569847e-07
436,306120.77249807096,3.0701213318515193e-07
437,312923.45633317553,3.032997366608702e-07
438,319726.1401682801,2.9971386967657e-07
439,326528.82398977893,2.962476582186566e-07
440,333331.50782488356,2.9289473499025493e-07
441,340134.1916599881,2.89649192830388e-07
442,346936.87549509265,2.865055428025928e-07
443,353739.5593301972,2.834586770623156e-07
444,360542.24316530174,2.8050383598286484e-07
445,367344.9270004063,2.776365781893703e-07
446,374147.6108219052,2.7485275363300634e-07
447,380950.2946570097,2.7214848012877924e-07
448,387752.9784921143,2.695201211677339e-07
449,394555.66232721886,2.669642665701213e-07
