,E (eV),I (erg/s/cm**2)
0,1.360543186192048,0.0003387016664122254
1,2.0408011735840956,0.0004220613770522763
2,2.7210727666801198,0.0004356075382954788
3,3.401344359776144,0.0003173845892980654
4,4.081615952872168,0.00036625092744990316
5,4.761873940264215,0.0004198023089290984
6,5.4421455333602395,0.0004787998205729821
7,6.122417126456264,0.0005423916997949563
8,6.802688719552288,0.0005913569727652409
9,7.482946706944335,0.0008052742070249459
10,8.16321830004036,0.001077547683351598
11,8.843489893136384,0.0012766436174774984
12,9.523761486232408,0.0015084824802953892
13,10.204019473624456,0.0006084324292901411
14,10.884291066720479,0.00054991649893548
15,11.564562659816504,0.0004241317203718757
16,12.244834252912527,0.0003068002697166753
17,12.92510584600855,0.0001392665839631815
18,13.7414208731606,6.997548964011254e-06
19,14.421692466256623,6.129600302662273e-06
20,15.101964059352648,5.7574911648873865e-06
21,15.782222046744696,4.6486089420666305e-06
22,16.46249363984072,5.332485996164824e-06
23,17.142765232936743,5.217597450114459e-06
24,17.823036826032766,5.155719026185176e-06
25,18.503294813424816,5.082105052419928e-06
26,19.18356640652084,4.934711634083936e-06
27,19.863837999616862,4.993163093171202e-06
28,20.544109592712886,5.432395003110392e-06
29,21.224367580104932,5.1710192452575e-06
30,21.90463917320096,4.939446292475823e-06
31,22.584910766296982,5.016475073526921e-06
32,23.26518235939301,5.9656234348884e-06
33,23.945440346785055,5.850377940607331e-06
34,24.62571193988108,5.554530598292353e-06
35,25.305983532977105,5.101237122136638e-06
36,25.986255126073125,5.489642236766942e-06
37,26.66652671916915,5.021853677964307e-06
38,27.210741272505174,4.716556695708191e-06
39,27.3467847065612,4.889779153572408e-06
40,27.4828417463212,5.23998474702098e-06
41,27.618898786081196,4.518245079729237e-06
42,27.7549558258412,4.700714507129784e-06
43,27.89099925989722,5.112685091173666e-06
44,28.02705629965722,4.647885240039006e-06
45,28.16311333941722,4.542724375168117e-06
46,28.299170379177223,5.351623477590475e-06
47,28.435213813233247,4.73208461630089e-06
48,28.571270852993244,4.9949040565456405e-06
49,28.70732789275325,5.111079775530105e-06
50,28.843384932513246,4.880983666403432e-06
51,28.97942836656927,5.01650601443526e-06
52,29.115485406329267,4.972958987543328e-06
53,29.25154244608927,4.8820524686082935e-06
54,29.387599485849268,4.758012989910865e-06
55,29.523642919905292,4.45425173508234e-06
56,29.659699959665296,4.598162130632838e-06
57,29.795756999425294,4.805348780958166e-06
58,29.931814039185298,4.615787416884509e-06
59,30.067857473241315,4.55988254466525e-06
60,30.20391451300132,4.627081608961555e-06
61,30.339971552761316,4.326442324820504e-06
62,30.47602859252132,4.571207999858809e-06
63,30.612072026577344,4.50357435281119e-06
64,30.74812906633734,4.1086173132850905e-06
65,30.884186106097346,4.2699161779620025e-06
66,31.020243145857343,4.163134142530599e-06
67,31.156286579913367,4.036668755083109e-06
68,31.292343619673364,4.014622259755184e-06
69,31.42840065943337,3.901667642723551e-06
70,31.564457699193365,3.7777099240607677e-06
71,31.70050113324939,4.080373668247627e-06
72,31.836558173009394,3.6134340058711086e-06
73,31.97261521276939,3.858107261378302e-06
74,32.108672252529395,3.7478789066154123e-06
75,32.244715686585415,3.7749246868076383e-06
76,32.38077272634541,3.699471811798861e-06
77,32.51682976610541,3.5696443290907946e-06
78,32.652886805865414,3.837658763147901e-06
79,32.78893023992144,3.529096982416731e-06
80,32.92498727968144,4.012445003182562e-06
81,33.06104431944144,3.7656860273690307e-06
82,33.19710135920144,4.057610850234253e-06
83,33.33314479325746,3.922620933271241e-06
84,33.46920183301746,3.93084809509254e-06
85,33.60525887277746,4.053812866708777e-06
86,33.74131591253746,3.7034006904928475e-06
87,33.87735934659349,3.973359008754954e-06
88,34.01341638635349,3.55642204066924e-06
89,34.14947342611349,3.957588500276081e-06
90,34.285530465873485,3.7412314256551836e-06
91,34.421573899929506,4.025289593013494e-06
92,34.55763093968951,3.846693900858607e-06
93,34.69368797944951,3.8502486461896994e-06
94,34.82974501920951,3.855657323980742e-06
95,34.96578845326554,4.039453816269983e-06
96,35.101845493025536,4.065015724454582e-06
97,35.23790253278553,4.20382211845008e-06
98,35.37395957254554,4.29546046878812e-06
99,35.51000300660156,4.242929969469351e-06
100,35.646060046361555,4.500681831393614e-06
101,35.78211708612156,4.5326906399688925e-06
102,35.918174125881556,4.556730011021051e-06
103,36.054217559937584,4.477520178902946e-06
104,36.19027459969758,4.8445763722524425e-06
105,36.326331639457585,4.824771520349197e-06
106,36.46238867921758,4.860125820247841e-06
107,36.59844571897758,4.966559004067766e-06
108,36.73448915303361,5.0883186976593385e-06
109,36.870546192793604,5.246962930308783e-06
110,37.00660323255361,5.2395315975822764e-06
111,37.142660272313606,5.7378027215743565e-06
112,37.27870370636963,5.5059003677017815e-06
113,37.41476074612963,5.985496387652528e-06
114,37.55081778588963,5.858427428879051e-06
115,37.686874825649625,6.390984028343297e-06
116,37.82291825970565,6.083663421106318e-06
117,37.958975299465656,6.686810742313369e-06
118,38.095032339225654,6.2318353269700186e-06
119,38.23108937898566,6.861190514837341e-06
120,38.36713281304168,6.479976756655648e-06
121,38.503189852801675,7.020331717971427e-06
122,38.63924689256167,6.9926878699490385e-06
123,38.77530393232168,7.4302933651856775e-06
124,38.911347366377704,7.443645442179361e-06
125,39.0474044061377,8.090959626808437e-06
126,39.183461445897706,8.014863517930041e-06
127,39.3195184856577,8.724504515588864e-06
128,39.45556191971372,8.785402366625971e-06
129,39.59161895947372,8.694353875773579e-06
130,39.727675999233725,9.552574683186277e-06
131,39.86373303899372,9.564231465369468e-06
132,39.99977647304975,1.0470179145008826e-05
133,40.135833512809754,1.03200960126226e-05
134,40.27189055256975,1.122681485308072e-05
135,40.407947592329755,1.1202841090649365e-05
136,40.54399102638577,1.2250088772436155e-05
137,40.68004806614577,1.232034996756927e-05
138,40.81610510590577,1.2067555010475988e-05
139,40.952162145665774,2.7169058869623503e-06
140,41.0882055797218,2.7785983828639433e-06
141,41.2242626194818,2.7907554867800967e-06
142,41.3603196592418,2.833121538151181e-06
143,41.4963766990018,2.6884543261675426e-06
144,41.63242013305782,2.804997627778033e-06
145,41.76847717281782,2.5836163083143797e-06
146,41.90453421257782,2.6666662619880895e-06
147,42.04059125233782,2.4531571750617917e-06
148,42.17663468639385,2.5948140519448063e-06
149,42.31269172615385,2.6416724886945977e-06
150,42.44874876591385,2.4479242756880482e-06
151,42.584805805673845,2.8792959167293925e-06
152,42.720849239729866,2.4292019349790053e-06
153,42.85690627948987,2.893642516048682e-06
154,42.99296331924987,2.6273885461487654e-06
155,43.12902035900987,2.6745482738356146e-06
156,43.2650637930659,2.7583087520225822e-06
157,43.401120832825896,2.4824510698407156e-06
158,43.53717787258589,2.718200406586722e-06
159,43.67323491234589,2.480549370163134e-06
160,43.80927834640192,2.539790112828195e-06
161,43.945335386161915,2.5081155273254443e-06
162,44.08139242592192,2.316888312691138e-06
163,44.217449465681916,2.403881694751131e-06
164,44.353492899737944,2.1661624698644626e-06
165,44.48954993949794,2.1594924978334855e-06
166,44.62560697925794,2.0906243868678175e-06
167,44.761664019017935,2.1133632765697916e-06
168,44.89770745307396,2.2083763434083213e-06
169,45.03376449283397,2.0445010260312748e-06
170,45.169821532593964,1.9818128273802236e-06
171,45.30587857235397,1.8100551297395663e-06
172,45.44192200640999,1.6787149135745106e-06
173,45.577979046169986,1.4721261767821334e-06
174,45.71403608592998,1.5140681189444758e-06
175,45.85009312568999,1.3894458719602307e-06
176,45.986136559746015,1.3384994842520626e-06
177,46.12219359950601,1.450359481887714e-06
178,46.258250639266016,1.0673528639522782e-06
179,46.394307679026014,1.2584867097832207e-06
180,46.53035111308204,1.1892658625874326e-06
181,46.66640815284203,1.0699474015624962e-06
182,46.802465192602035,1.2282775761131421e-06
183,46.93852223236203,8.667438372160372e-07
184,47.07456566641806,1.0814508552098773e-06
185,47.210622706178064,1.0498357665054915e-06
186,47.34667974593806,6.934355928932972e-07
187,47.482736785698066,9.447948790690352e-07
188,47.618780219754086,7.338292695417708e-07
189,47.75483725951408,5.448929235575401e-07
190,47.89089429927408,6.178095469368131e-07
191,48.026951339034085,2.866915293228616e-07
192,48.16299477309011,3.8508713702251637e-07
193,48.29905181285011,3.4495621557688785e-07
194,48.43506041766452,1.1620551374202142e-06
195,48.43515728755569,1.1620574615249788e-06
196,48.57116589237011,1.0964067001115955e-06
197,48.707222932130115,1.1301955746871748e-06
198,48.84326636618613,1.2079855024647933e-06
199,48.97932340594613,9.071012058380674e-07
200,49.11538044570613,9.224808898138153e-07
201,49.251437485466134,8.55810611496925e-07
202,49.38748091952216,6.577015855392142e-07
203,49.52353795928216,5.912584480796469e-07
204,49.65959499904216,6.11816497056239e-07
205,49.79565203880216,5.515224482646719e-07
206,49.93169547285818,4.1794548017602935e-07
207,50.06775251261818,4.1210141378449336e-07
208,50.20380955237818,4.0168741063840584e-07
209,50.33986659213818,3.224479750130654e-07
210,50.47591002619421,3.378691256063171e-07
211,50.61196706595421,3.313537129435398e-07
212,50.74802410571421,1.3632000627407147e-07
213,50.884081145474205,1.5541415928552923e-07
214,51.02007355950089,2.092031013366193e-07
215,51.02017559955957,2.0920351974245937e-07
216,51.15618161929023,3.4986047335023786e-07
217,51.29223865905023,2.458544244549333e-07
218,51.42829569881023,3.614888244180939e-07
219,51.56433913286626,2.3093555564977178e-07
220,51.700396172626256,1.3847238470040732e-07
221,51.83645321238625,1.756722973147446e-07
222,51.97251025214625,1.1113281702640541e-07
223,52.10855368620228,7.504412959532329e-08
224,52.24455848141958,5.961774855714731e-08
225,52.244662970504976,5.96178677926084e-08
226,52.38066776572228,1.2723471559484462e-07
227,52.516724805482276,1.4303197194940165e-07
228,52.652768239538304,1.0085080795025849e-07
229,52.7888252792983,5.410578033497087e-08
230,52.92482939423041,3.432516684893015e-07
231,52.924935243886196,3.4325235499261903e-07
232,53.060939358818295,2.422937112410468e-07
233,53.19698279287432,2.460063533161848e-07
234,53.33303983263433,3.352382201816473e-07
235,53.469096872394324,2.190693063243601e-07
236,53.60515391215433,2.1911713657979075e-07
237,53.74119734621035,3.281223482290998e-07
238,53.877254385970346,2.088479376226536e-07
239,54.01331142573034,2.0469679883273345e-07
240,54.14936846549035,3.346745174809832e-07
241,54.285411899546375,1.9383015630711124e-07
242,54.55752597906638,4.3781571483812044e-08
243,61.36021469861866,3.165867041722233e-09
244,68.16288981246697,1.5296795185119405e-09
245,74.96557853201926,1.8847007576679934e-09
246,81.76825364586757,1.2789186468207472e-09
247,88.57094236541987,1.891917148363436e-09
248,95.37363108497215,1.8052808618116495e-09
249,102.17630619882047,1.517139868351911e-09
250,108.97899491837275,1.5747875299240146e-09
251,115.78168363792504,1.66502482577383e-09
252,122.58435875177334,1.7495157714457946e-09
253,129.38704747132562,1.8582093422383446e-09
254,136.05367915111793,1.9786611998616394e-09
255,136.1897361908779,1.9812447965167213e-09
256,204.0805119238249,3.4763912330683385e-09
257,272.10735830223587,5.971796160290203e-09
258,340.1341910749428,1.0672099751945616e-08
259,408.1610238476498,1.5328973600959744e-08
260,476.18787022606074,2.0062149643795676e-08
261,544.2147029987677,2.442713672200479e-08
262,612.2415493771787,2.8841257438927973e-08
263,680.2683821498856,3.4001225012832235e-08
264,748.2952149225927,3.881368876804379e-08
265,816.3220613010035,4.3283880823468074e-08
266,884.3488940737104,4.745141566240448e-08
267,952.3757404521215,5.136100428006568e-08
268,1020.4025732248285,5.5053922016802824e-08
269,1088.4294196032395,5.8565332892558733e-08
270,1156.4562523759464,6.19241138874412e-08
271,1224.4830851486533,6.515360468043697e-08
272,1292.5099315270643,6.827256801520919e-08
273,1360.5367642997712,7.129609610911164e-08
274,1496.590443450889,7.710334416727577e-08
275,1632.644122602007,8.264834015422481e-08
276,1768.697801753125,8.798073092363722e-08
277,1904.7514672985392,9.313541230900976e-08
278,2040.805146449657,9.813772121376645e-08
279,2176.8588256007747,1.0300661730706626e-07
280,2312.912504751893,1.0775668769723043e-07
281,2448.966183903011,1.1239943729054335e-07
282,2585.0198630541286,1.1694414266242228e-07
283,2721.0735285995424,1.2139843017267975e-07
284,2857.1272077506605,1.257686804024592e-07
285,2993.180886901778,1.3006030938806576e-07
286,3129.2345660528963,1.342779774530952e-07
287,3265.288245204014,1.3842574091449132e-07
288,3401.3419107494283,1.425071658886328e-07
289,3537.3955899005464,1.4652541785830304e-07
290,3673.4492690516645,1.5048332599644958e-07
291,3809.502948202782,1.5438343857988907e-07
292,3945.5566273539002,1.582280647857484e-07
293,4081.610306505018,1.620193087102372e-07
294,4217.663972050432,1.6575909688421258e-07
295,4353.717651201549,1.6944920293779606e-07
296,4489.771330352668,1.7309126362337538e-07
297,4625.825009503786,1.7668679681996402e-07
298,4761.878688654903,1.802372143125446e-07
299,4897.932354200318,1.837438330042126e-07
300,5033.986033351435,1.872078863292047e-07
301,5170.039712502553,1.906305300200554e-07
302,5306.0933916536715,1.9401285129102945e-07
303,5442.147070804789,1.9735587474181626e-07
304,5578.200749955907,2.006605679102287e-07
305,5714.254415501321,2.0392784584761133e-07
306,5850.308094652439,2.071585772954595e-07
307,5986.361773803556,2.1035358560922128e-07
308,6122.415452954675,2.1351365430742857e-07
309,6258.469132105793,2.1663952953828745e-07
310,6394.522797651206,2.1973192248264155e-07
311,6530.576476802325,2.2279151368734377e-07
312,6666.630155953442,2.2581895238469389e-07
313,6802.68383510456,2.288148605789771e-07
314,6938.737514255678,2.3177983442407131e-07
315,7074.791179801093,2.3471444536913118e-07
316,7210.8448589522095,2.3761924353065186e-07
317,7346.898538103329,2.4049475645897703e-07
318,7482.952217254446,2.4334149212978855e-07
319,7619.005896405564,2.461599398396393e-07
320,7755.059575556682,2.4895057110294105e-07
321,7891.113241102096,2.517138404207266e-07
322,8027.166920253213,2.544501877111508e-07
323,8163.220599404332,2.5716003681941875e-07
324,8299.27427855545,2.598437979801574e-07
325,8435.327957706568,2.625018679327188e-07
326,8571.38162325198,2.651346304489175e-07
327,8707.435302403099,2.6774245861299405e-07
328,8843.488981554217,2.703257127091899e-07
329,8979.542660705336,2.72884742668632e-07
330,9115.596339856453,2.754198879518706e-07
331,9251.650019007571,2.7793147834965437e-07
332,9387.703684552984,2.8041983381984657e-07
333,9523.757363704102,2.8288526642879835e-07
334,9659.81104285522,2.8532807869998865e-07
335,9795.86472200634,2.877485651689027e-07
336,9931.918401157456,2.901470126515376e-07
337,10067.97206670287,2.925237001225978e-07
338,10204.025745853987,2.948789004236431e-07
339,10340.079425005106,2.97212878475848e-07
340,10476.133104156224,2.995258929230445e-07
341,10612.186783307343,3.0181819613337837e-07
342,10748.24046245846,3.0409003426644346e-07
343,10884.294128003874,3.063416473886276e-07
344,11020.34780715499,3.0857327111094133e-07
345,11156.40148630611,3.107851344082143e-07
346,11292.455165457228,3.129774614476219e-07
347,11428.508844608346,3.151504713844486e-07
348,11564.562510153759,3.173043782762814e-07
349,11700.616189304877,3.194393925392477e-07
350,11836.669868455994,3.215557190651474e-07
351,11972.723547607113,3.2365355861169025e-07
352,12108.777226758231,3.2573310802817845e-07
353,12244.83090590935,3.2779455993986995e-07
354,12380.884571454762,3.2983810270907393e-07
355,12516.938250605881,3.3186392211615733e-07
356,12652.991929756998,3.3387219915827154e-07
357,12789.045608908116,3.358631116102879e-07
358,12925.099288059235,3.3783683390063326e-07
359,13061.15295360465,3.3979353674737493e-07
360,13197.206632755768,3.417333887789673e-07
361,13333.260311906884,3.4365655451542647e-07
362,13469.313991058003,3.4556319564392877e-07
363,13605.36767020912,3.4745347097423193e-07
364,16326.441198808663,3.820442760071029e-07
365,19047.514727408205,4.111832640838413e-07
366,21768.58826961345,4.3566751360737505e-07
367,24489.661798212994,4.561219335651394e-07
368,27210.735326812537,4.7305389661128855e-07
369,29931.808869017783,4.868858972226583e-07
370,32652.882397617326,4.979764420241359e-07
371,35373.95592621687,5.066341452900059e-07
372,38095.029468422115,5.131276547709745e-07
373,40816.10299702166,5.176928983310989e-07
374,43537.1765392269,5.205385340774644e-07
375,46258.25006782645,5.218501528060649e-07
376,48979.32359642599,5.217935945294098e-07
377,51700.39713863123,5.205176098327409e-07
378,54421.47066723078,5.181560356830318e-07
379,57142.54419583032,5.148297082082403e-07
380,59863.617738035566,5.106481644326023e-07
381,62584.691266635105,5.05711096747505e-07
382,65305.76479523465,5.0010988421065e-07
383,68026.8383374399,4.939292480318095e-07
384,70747.91186603945,4.872491618704861e-07
385,73468.98539463898,4.801470734226347e-07
386,76190.05893684423,4.727006826016936e-07
387,78911.13246544376,4.649910918278096e-07
388,81632.20599404332,4.5710688187934403e-07
389,84353.27953624855,4.4914851055407714e-07
390,87074.35306484811,4.412326798101751e-07
391,89795.42659344764,4.334995149057719e-07
392,92516.5001356529,4.2610804852851913e-07
393,95237.57366425243,4.1906955550002063e-07
394,97958.64719285197,4.1234513998960453e-07
395,100679.72073505721,4.0591262422956367e-07
396,103400.79426365678,3.997519424189655e-07
397,106121.86779225631,3.9384488968690554e-07
398,108842.94133446156,3.8817490770414836e-07
399,111564.0148630611,3.827268983767818e-07
400,114285.08839166064,3.7748706369249604e-07
401,117006.16193386588,3.7244276593577e-07
402,119727.23546246543,3.675824057081541e-07
403,122448.30900467066,3.628953152549629e-07
404,125169.38253327021,3.5837166510464473e-07
405,127890.45606186974,3.54002381754946e-07
406,130611.529604075,3.497790747239586e-07
407,133332.60313267456,3.45693972208483e-07
408,136053.6766612741,3.417398641095349e-07
409,138774.75020347934,3.379100510838406e-07
410,141495.8237320789,3.341982990917627e-07
411,144216.89726067844,3.305987990250018e-07
412,146937.97080288368,3.2710613037119314e-07
413,149659.04433148322,3.2371522844076555e-07
414,156461.72816658777,3.1565284301285207e-07
415,163264.4120016923,3.0813141064465806e-07
416,170067.0958367969,3.010942551786837e-07
417,176869.77965829574,2.944926069040051e-07
418,183672.4634934003,2.882842455677787e-07
419,190475.14732850486,2.8243241656819346e-07
420,197277.83116360943,2.769049582312129e-07
421,204080.51499871397,2.716735928424059e-07
422,210883.19883381855,2.6671334649570756e-07
423,217685.88266892312,2.620020715774721e-07
424,224488.56649042197,2.575200502454061e-07
425,231291.25032552652,2.5324966385501154e-07
426,238093.93416063106,2.491751155874951e-07
427,244896.61799573564,2.452821963210321e-07
428,251699.30183084018,2.415580863480297e-07
429,258501.98566594475,2.3799118616735954e-07
430,265304.6695010493,2.3457097212322563e-07
431,272107.3533225482,2.3128787174342418e-07
432,278910.0371576527,2.2813315694455471e-07
433,285712.7209927573,2.2509885066748513e-07
434,292515.4048278619,2.2217764665123951e-07
435,299318.08866296645,2.1936283864754255e-07
436,306120.77249807096,2.1664825908102586e-07
437,312923.45633317553,2.1402822473815378e-07
438,319726.1401682801,2.1149748944020104e-07
439,326528.82398977893,2.0905120176986443e-07
440,333331.50782488356,2.0668486797255846e-07
441,340134.1916599881,2.0439431903249606e-07
442,346936.87549509265,2.0217568100096316e-07
443,353739.5593301972,2.000253491176357e-07
444,360542.24316530174,1.9793996418744255e-07
445,367344.9270004063,1.9591639162246792e-07
446,374147.6108219052,1.9395170257313126e-07
447,380950.2946570097,1.92043157097802e-07
448,387752.9784921143,1.9018818872957968e-07
