,E (eV),I (erg/s/cm**2)
0,1.360543186192048,0.00036163282156128094
1,2.0408011735840956,0.0004504886624553181
2,2.7210727666801198,0.0004574908847578593
3,3.401344359776144,0.00033889490578083587
4,4.081615952872168,0.00038878722843261996
5,4.761873940264215,0.0004484209563749201
6,5.4421455333602395,0.0005177575151189769
7,6.122417126456264,0.0005782862503635474
8,6.802688719552288,0.0006351100985758101
9,7.482946706944335,0.0009063473334169492
10,8.16321830004036,0.0011290414745985778
11,8.843489893136384,0.001341628636841322
12,9.523761486232408,0.0015639181504453605
13,10.204019473624456,0.0006428366872759663
14,10.884291066720479,0.0005753188792435976
15,11.564562659816504,0.0004527053612159128
16,12.244834252912527,0.0003176042799113729
17,12.92510584600855,0.0001453050574891765
18,13.7414208731606,7.299250087553927e-06
19,14.421692466256623,6.470414757250576e-06
20,15.101964059352648,6.0628705262590684e-06
21,15.782222046744696,4.8696627346048805e-06
22,16.46249363984072,5.572497393404931e-06
23,17.142765232936743,5.4404608010135875e-06
24,17.823036826032766,5.39650093026073e-06
25,18.503294813424816,5.328543215364271e-06
26,19.18356640652084,5.191484175102552e-06
27,19.863837999616862,5.1996647680882545e-06
28,20.544109592712886,5.6317026405817025e-06
29,21.224367580104932,5.351377533292191e-06
30,21.90463917320096,5.135380763239255e-06
31,22.584910766296982,5.232878832028382e-06
32,23.26518235939301,6.23860104646463e-06
33,23.945440346785055,6.142918903589118e-06
34,24.62571193988108,5.7963382669463505e-06
35,25.305983532977105,5.38450866920882e-06
36,25.986255126073125,5.616251547208919e-06
37,26.66652671916915,5.313232118572872e-06
38,27.210741272505174,5.081300672248815e-06
39,27.3467847065612,4.948253695714614e-06
40,27.4828417463212,5.342653708606554e-06
41,27.618898786081196,4.880131915439135e-06
42,27.7549558258412,4.832627516292809e-06
43,27.89099925989722,5.195061635213929e-06
44,28.02705629965722,4.972932802934877e-06
45,28.16311333941722,4.667324975184432e-06
46,28.299170379177223,5.496821065949239e-06
47,28.435213813233247,4.994248282346379e-06
48,28.571270852993244,5.1469418507826e-06
49,28.70732789275325,5.2373696649017954e-06
50,28.843384932513246,5.029214355549323e-06
51,28.97942836656927,5.204594761581088e-06
52,29.115485406329267,5.1502600206995195e-06
53,29.25154244608927,5.042533787384015e-06
54,29.387599485849268,4.8316247544647274e-06
55,29.523642919905292,4.693412577611991e-06
56,29.659699959665296,4.771351912638696e-06
57,29.795756999425294,4.870985669033182e-06
58,29.931814039185298,4.80596010004638e-06
59,30.067857473241315,4.710527133705781e-06
60,30.20391451300132,4.761879280673399e-06
61,30.339971552761316,4.578334810642702e-06
62,30.47602859252132,4.6431284712721925e-06
63,30.612072026577344,4.601008544863339e-06
64,30.74812906633734,4.295672067147709e-06
65,30.884186106097346,4.3544920464635715e-06
66,31.020243145857343,4.368299967336205e-06
67,31.156286579913367,4.232281732641346e-06
68,31.292343619673364,3.9940709118562635e-06
69,31.42840065943337,4.11915668726794e-06
70,31.564457699193365,3.855807396966739e-06
71,31.70050113324939,4.252309240542628e-06
72,31.836558173009394,3.857519955142308e-06
73,31.97261521276939,3.979120369161948e-06
74,32.108672252529395,4.006994434812213e-06
75,32.244715686585415,3.8040921313913873e-06
76,32.38077272634541,3.874247176966867e-06
77,32.51682976610541,3.6786529361585184e-06
78,32.652886805865414,4.037114717089909e-06
79,32.78893023992144,3.6936649965253823e-06
80,32.92498727968144,4.0954890751016095e-06
81,33.06104431944144,3.962061018582389e-06
82,33.19710135920144,4.115384526080622e-06
83,33.33314479325746,4.127910623069177e-06
84,33.46920183301746,4.088922384824697e-06
85,33.60525887277746,4.28833679588487e-06
86,33.74131591253746,3.890810172872156e-06
87,33.87735934659349,4.162256290706028e-06
88,34.01341638635349,3.739762368479226e-06
89,34.14947342611349,4.113206303694675e-06
90,34.285530465873485,3.8736490179359755e-06
91,34.421573899929506,4.177770898364261e-06
92,34.55763093968951,3.964056151151699e-06
93,34.69368797944951,4.005630474029276e-06
94,34.82974501920951,4.022139514334024e-06
95,34.96578845326554,4.233498286582965e-06
96,35.101845493025536,4.24778084025451e-06
97,35.23790253278553,4.3890747869726825e-06
98,35.37395957254554,4.514374056828181e-06
99,35.51000300660156,4.4459093275073724e-06
100,35.646060046361555,4.6573387780137636e-06
101,35.78211708612156,4.827893676801904e-06
102,35.918174125881556,4.713273309805255e-06
103,36.054217559937584,4.771054613275576e-06
104,36.19027459969758,4.993912766324068e-06
105,36.326331639457585,5.124386890904116e-06
106,36.46238867921758,5.012177868732854e-06
107,36.59844571897758,5.144943435111085e-06
108,36.73448915303361,5.253594577752496e-06
109,36.870546192793604,5.426529363040573e-06
110,37.00660323255361,5.410683268382251e-06
111,37.142660272313606,5.9066481810910794e-06
112,37.27870370636963,5.690383776882129e-06
113,37.41476074612963,6.132900311775575e-06
114,37.55081778588963,6.039777184087382e-06
115,37.686874825649625,6.51764761400765e-06
116,37.82291825970565,6.280339690949839e-06
117,37.958975299465656,6.8345244779417474e-06
118,38.095032339225654,6.446462831825146e-06
119,38.23108937898566,6.985285857436452e-06
120,38.36713281304168,6.686365723681756e-06
121,38.503189852801675,7.103474024153205e-06
122,38.63924689256167,7.1911751179667315e-06
123,38.77530393232168,7.518378628181257e-06
124,38.911347366377704,7.6095071845447484e-06
125,39.0474044061377,8.176645828433148e-06
126,39.183461445897706,8.153621217566821e-06
127,39.3195184856577,8.793560963031e-06
128,39.45556191971372,8.872559961680081e-06
129,39.59161895947372,9.403537562221817e-06
130,39.727675999233725,9.632334983825094e-06
131,39.86373303899372,9.640978412041515e-06
132,39.99977647304975,1.0551954462714674e-05
133,40.135833512809754,1.0330794328736056e-05
134,40.27189055256975,1.1263259974079635e-05
135,40.407947592329755,1.117347273699541e-05
136,40.54399102638577,1.2232676141698719e-05
137,40.68004806614577,1.2317378749092725e-05
138,40.81610510590577,1.200730531986174e-05
139,40.952162145665774,2.8650381429542827e-06
140,41.0882055797218,2.8014485982339347e-06
141,41.2242626194818,2.9219220275449445e-06
142,41.3603196592418,2.8676169233692555e-06
143,41.4963766990018,2.800499862607289e-06
144,41.63242013305782,2.8584708300047265e-06
145,41.76847717281782,2.649341321203418e-06
146,41.90453421257782,2.789589043159708e-06
147,42.04059125233782,2.442444281240506e-06
148,42.17663468639385,2.7771338430947225e-06
149,42.31269172615385,2.616523006342662e-06
150,42.44874876591385,2.5671422493768918e-06
151,42.584805805673845,2.9220651524675018e-06
152,42.720849239729866,2.4730560098494136e-06
153,42.85690627948987,2.995612253920571e-06
154,42.99296331924987,2.6118428118825115e-06
155,43.12902035900987,2.7990905616092915e-06
156,43.2650637930659,2.7508301685143635e-06
157,43.401120832825896,2.572756164207891e-06
158,43.53717787258589,2.764141579093514e-06
159,43.67323491234589,2.5335773830466008e-06
160,43.80927834640192,2.5932572354334558e-06
161,43.945335386161915,2.515375287452079e-06
162,44.08139242592192,2.3912711376993524e-06
163,44.217449465681916,2.382158961425517e-06
164,44.353492899737944,2.2327111110166e-06
165,44.48954993949794,2.1623677472509672e-06
166,44.62560697925794,2.1582381819160973e-06
167,44.761664019017935,2.126624424650138e-06
168,44.89770745307396,2.207645790055856e-06
169,45.03376449283397,2.106366347119642e-06
170,45.169821532593964,1.956871128178048e-06
171,45.30587857235397,1.892223642030692e-06
172,45.44192200640999,1.6553793457573777e-06
173,45.577979046169986,1.5457673255158865e-06
174,45.71403608592998,1.5876895704408117e-06
175,45.85009312568999,1.3557179118506583e-06
176,45.986136559746015,1.4130643695353042e-06
177,46.12219359950601,1.4224382489847632e-06
178,46.258250639266016,1.123085632327323e-06
179,46.394307679026014,1.325410008560735e-06
180,46.53035111308204,1.1584609434874898e-06
181,46.66640815284203,1.1255945291035013e-06
182,46.802465192602035,1.2020120614904004e-06
183,46.93852223236203,8.693942455167166e-07
184,47.07456566641806,1.121363652226712e-06
185,47.210622706178064,1.0317108872717155e-06
186,47.34667974593806,7.168144547513938e-07
187,47.482736785698066,9.685909661870456e-07
188,47.618780219754086,7.239082504498871e-07
189,47.75483725951408,5.592316775216379e-07
190,47.89089429927408,6.125364773578418e-07
191,48.026951339034085,2.906238309309427e-07
192,48.16299477309011,3.8886643650588154e-07
193,48.29905181285011,3.4877785447816384e-07
194,48.43506041766452,1.2077344876272863e-06
195,48.43515728755569,1.2077369030905347e-06
196,48.57116589237011,1.0943516000579606e-06
197,48.707222932130115,1.173234887019794e-06
198,48.84326636618613,1.2210685332063505e-06
199,48.97932340594613,9.158372242366797e-07
200,49.11538044570613,8.43870687603401e-07
201,49.251437485466134,8.696315802356898e-07
202,49.38748091952216,6.733346727302128e-07
203,49.52353795928216,6.08710999261983e-07
204,49.65959499904216,6.244834875533897e-07
205,49.79565203880216,5.670591951599201e-07
206,49.93169547285818,4.3213404022225026e-07
207,50.06775251261818,4.254202881802386e-07
208,50.20380955237818,4.151410840360621e-07
209,50.33986659213818,3.2890401443634933e-07
210,50.47591002619421,3.482910225646224e-07
211,50.61196706595421,3.4196500783318034e-07
212,50.74802410571421,1.40215646423412e-07
213,50.884081145474205,1.5926563619108e-07
214,51.02007355950089,2.1297670546444379e-07
215,51.02017559955957,2.1297713141748559e-07
216,51.15618161929023,3.508610445576025e-07
217,51.29223865905023,2.5588851252727716e-07
218,51.42829569881023,3.730752755617762e-07
219,51.56433913286626,2.3615647989079634e-07
220,51.700396172626256,1.4497740054826816e-07
221,51.83645321238625,1.8204104065264365e-07
222,51.97251025214625,1.1508683876330959e-07
223,52.10855368620228,7.906195737407347e-08
224,52.24455848141958,6.35891149251377e-08
225,52.244662970504976,6.358924210332913e-08
226,52.38066776572228,1.3504639284909973e-07
227,52.516724805482276,1.4824150542902125e-07
228,52.652768239538304,1.0561006719491989e-07
229,52.7888252792983,5.927517634471811e-08
230,52.92482939423041,3.3911059959120753e-07
231,52.924935243886196,3.3911127781238744e-07
232,53.060939358818295,2.3779215166710256e-07
233,53.19698279287432,2.7328431552876853e-07
234,53.33303983263433,3.333992908762256e-07
235,53.469096872394324,2.165315321262049e-07
236,53.60515391215433,2.3706603612942236e-07
237,53.74119734621035,3.290861728018258e-07
238,53.877254385970346,2.0945121194436292e-07
239,54.01331142573034,2.1069582254840268e-07
240,54.14936846549035,3.4027999567589863e-07
241,54.285411899546375,1.995346110910986e-07
242,54.55752597906638,4.664536959478449e-08
243,61.36021469861866,3.620271672217573e-09
244,68.16288981246697,1.871998883520097e-09
245,74.96557853201926,2.2692405787194272e-09
246,81.76825364586757,1.6295608422865933e-09
247,88.57094236541987,2.298153250386197e-09
248,95.37363108497215,2.223199118765461e-09
249,102.17630619882047,1.933361698752447e-09
250,108.97899491837275,2.01450037810375e-09
251,115.78168363792504,2.1309727343787965e-09
252,122.58435875177334,2.2438697984963726e-09
253,129.38704747132562,2.382688385181157e-09
254,136.05367915111793,2.5352330111614812e-09
255,136.1897361908779,2.5384832520808104e-09
256,204.0805119238249,4.428844691467196e-09
257,272.10735830223587,7.574386092171613e-09
258,340.1341910749428,1.3322497239820154e-08
259,408.1610238476498,1.9044611087015044e-08
260,476.18787022606074,2.4789420275711986e-08
261,544.2147029987677,3.004365465494321e-08
262,612.2415493771787,3.5361917272069814e-08
263,680.2683821498856,4.156552131529818e-08
264,748.2952149225927,4.7344030401946495e-08
265,816.3220613010035,5.2710114376008675e-08
266,884.3488940737104,5.77143834263291e-08
267,952.3757404521215,6.241168120214872e-08
268,1020.4025732248285,6.685178719609908e-08
269,1088.4294196032395,7.107672457300815e-08
270,1156.4562523759464,7.512081288492773e-08
271,1224.4830851486533,7.90116933316161e-08
272,1292.5099315270643,8.277153622089119e-08
273,1360.5367642997712,8.641814893836097e-08
274,1496.590443450889,9.342649519433067e-08
275,1632.644122602007,1.0012274877864181e-07
276,1768.697801753125,1.0656542651026424e-07
277,1904.7514672985392,1.127956970238691e-07
278,2040.805146449657,1.1884349299760421e-07
279,2176.8588256007747,1.2473124991211386e-07
280,2312.912504751893,1.3047625956868423e-07
281,2448.966183903011,1.3609218467289272e-07
282,2585.0198630541286,1.4159006089720813e-07
283,2721.0735285995424,1.4697897623520435e-07
284,2857.1272077506605,1.522665459851337e-07
285,2993.180886901778,1.5745924367982323e-07
286,3129.2345660528963,1.6256264698328623e-07
287,3265.288245204014,1.675816164972291e-07
288,3401.3419107494283,1.7252043003925284e-07
289,3537.3955899005464,1.773828885426867e-07
290,3673.4492690516645,1.8217239201326167e-07
291,3809.502948202782,1.8689200530981445e-07
292,3945.5566273539002,1.9154450753033545e-07
293,4081.610306505018,1.9613243272489625e-07
294,4217.663972050432,2.006581020855057e-07
295,4353.717651201549,2.0512365388206836e-07
296,4489.771330352668,2.0953106201434454e-07
297,4625.825009503786,2.1388215789633825e-07
298,4761.878688654903,2.1817864546070145e-07
299,4897.932354200318,2.2242211451637923e-07
300,5033.986033351435,2.2661405470440433e-07
301,5170.039712502553,2.3075586212746086e-07
302,5306.0933916536715,2.3484885032153109e-07
303,5442.147070804789,2.388942575545128e-07
304,5578.200749955907,2.4289325325422113e-07
305,5714.254415501321,2.4684694360931563e-07
306,5850.308094652439,2.507563791060012e-07
307,5986.361773803556,2.546225552937395e-07
308,6122.415452954675,2.584464198842849e-07
309,6258.469132105793,2.622288753648572e-07
310,6394.522797651206,2.659707820475135e-07
311,6530.576476802325,2.69672963154253e-07
312,6666.630155953442,2.733362043833847e-07
313,6802.68383510456,2.7696125831916146e-07
314,6938.737514255678,2.805488462917833e-07
315,7074.791179801093,2.840996600367901e-07
316,7210.8448589522095,2.876143652074043e-07
317,7346.898538103329,2.9109360047461726e-07
318,7482.952217254446,2.945379806314071e-07
319,7619.005896405564,2.979480979447262e-07
320,7755.059575556682,3.013245232505782e-07
321,7891.113241102096,3.046678067532674e-07
322,8027.166920253213,3.079784811102018e-07
323,8163.220599404332,3.112570595653375e-07
324,8299.27427855545,3.1450403857212666e-07
325,8435.327957706568,3.177198987969488e-07
326,8571.38162325198,3.2090510475381237e-07
327,8707.435302403099,3.2406010828870353e-07
328,8843.488981554217,3.2718534558605956e-07
329,8979.542660705336,3.302812405040038e-07
330,9115.596339856453,3.3334820421315616e-07
331,9251.650019007571,3.363866360113495e-07
332,9387.703684552984,3.3939692327604607e-07
333,9523.757363704102,3.4237944420871476e-07
334,9659.81104285522,3.45334565058522e-07
335,9795.86472200634,3.4826264254888e-07
336,9931.918401157456,3.511640242095875e-07
337,10067.97206670287,3.540390477472373e-07
338,10204.025745853987,3.5688804375708605e-07
339,10340.079425005106,3.597113331592736e-07
340,10476.133104156224,3.625092291843414e-07
341,10612.186783307343,3.652820374564091e-07
342,10748.24046245846,3.680300563289182e-07
343,10884.294128003874,3.707535766070879e-07
344,11020.34780715499,3.734528835240101e-07
345,11156.40148630611,3.761282546149636e-07
346,11292.455165457228,3.7877996141965705e-07
347,11428.508844608346,3.81408269404717e-07
348,11564.562510153759,3.840134379484424e-07
349,11700.616189304877,3.865957218393127e-07
350,11836.669868455994,3.891553693499162e-07
351,11972.723547607113,3.91692623835358e-07
352,12108.777226758231,3.942077236462965e-07
353,12244.83090590935,3.9670090210379043e-07
354,12380.884571454762,3.991723875471696e-07
355,12516.938250605881,4.01622405004304e-07
356,12652.991929756998,4.040511737081209e-07
357,12789.045608908116,4.0645890917299786e-07
358,12925.099288059235,4.088458226735663e-07
359,13061.15295360465,4.1121212108295005e-07
360,13197.206632755768,4.135580087417878e-07
361,13333.260311906884,4.1588368482362864e-07
362,13469.313991058003,4.1818934545118064e-07
363,13605.36767020912,4.2047518297531435e-07
364,16326.441198808663,4.6229821879666127e-07
365,19047.514727408205,4.975182926916819e-07
366,21768.58826961345,5.271013838762966e-07
367,24489.661798212994,5.518048716870701e-07
368,27210.735326812537,5.722437041924828e-07
369,29931.808869017783,5.889299566063522e-07
370,32652.882397617326,6.022981405570299e-07
371,35373.95592621687,6.127222823004121e-07
372,38095.029468422115,6.20527952982437e-07
373,40816.10299702166,6.260010497801156e-07
374,43537.1765392269,6.293944034965115e-07
375,46258.25006782645,6.309328735402025e-07
376,48979.32359642599,6.308173677174596e-07
377,51700.39713863123,6.292280714863194e-07
378,54421.47066723078,6.263271029343572e-07
379,57142.54419583032,6.222608906891136e-07
380,59863.617738035566,6.171621449143546e-07
381,62584.691266635105,6.111517090807916e-07
382,65305.76479523465,6.043404692562412e-07
383,68026.8383374399,5.968313797613043e-07
384,70747.91186603945,5.887218177398643e-07
385,73468.98539463898,5.801063025971996e-07
386,76190.05893684423,5.710796740192565e-07
387,78911.13246544376,5.61741287442729e-07
388,81632.20599404332,5.521987448744496e-07
389,84353.27953624855,5.425739126501325e-07
390,87074.35306484811,5.330072299020789e-07
391,89795.42659344764,5.236660588398649e-07
392,92516.5001356529,5.147376498380183e-07
393,95237.57366425243,5.062354648311724e-07
394,97958.64719285197,4.981126708320295e-07
395,100679.72073505721,4.903424783125029e-07
396,103400.79426365678,4.829006485671856e-07
397,106121.86779225631,4.7576519115412183e-07
398,108842.94133446156,4.689161041418835e-07
399,111564.0148630611,4.623351499420312e-07
400,114285.08839166064,4.560056611893311e-07
401,117006.16193386588,4.49912372005982e-07
402,119727.23546246543,4.440412707638545e-07
403,122448.30900467066,4.3837947152969467e-07
404,125169.38253327021,4.329151007714555e-07
405,127890.45606186974,4.276371979395035e-07
406,130611.529604075,4.2253562784538715e-07
407,133332.60313267456,4.1760100253726746e-07
408,136053.6766612741,4.128246124829119e-07
409,138774.75020347934,4.0819836512530223e-07
410,141495.8237320789,4.0371473016392566e-07
411,144216.89726067844,3.993666904085839e-07
412,146937.97080288368,3.9514769817069795e-07
413,149659.04433148322,3.910516354896268e-07
414,156461.72816658777,3.8131262207375857e-07
415,163264.4120016923,3.7222705552424987e-07
416,170067.0958367969,3.6372647350175977e-07
417,176869.77965829574,3.55751964599738e-07
418,183672.4634934003,3.4825252856396525e-07
419,190475.14732850486,3.4118376759990817e-07
420,197277.83116360943,3.345068318303083e-07
421,204080.51499871397,3.281875630541598e-07
422,210883.19883381855,3.2219579401883743e-07
423,217685.88266892312,3.1650477137275824e-07
424,224488.56649042197,3.110906767669804e-07
425,231291.25032552652,3.0593222789190554e-07
426,238093.93416063106,3.010103427051066e-07
427,244896.61799573564,2.963078573283144e-07
428,251699.30183084018,2.9180928617070924e-07
429,258501.98566594475,2.8750061753737895e-07
430,265304.6695010493,2.83369139250996e-07
431,272107.3533225482,2.794032882620961e-07
432,278910.0371576527,2.7559252144506376e-07
433,285712.7209927573,2.7192720282141464e-07
434,292515.4048278619,2.683985068388638e-07
435,299318.08866296645,2.6499833255166985e-07
436,306120.77249807096,2.617192298974608e-07
437,312923.45633317553,2.5855433378217907e-07
438,319726.1401682801,2.5549730697685943e-07
439,326528.82398977893,2.525422892886035e-07
440,333331.50782488356,2.4968385244891284e-07
441,340134.1916599881,2.469169604062304e-07
442,346936.87549509265,2.4423693365518656e-07
443,353739.5593301972,2.416394178028412e-07
444,360542.24316530174,2.3912035509079145e-07
445,367344.9270004063,2.3667595902393276e-07
446,374147.6108219052,2.3430269174208916e-07
447,380950.2946570097,2.3199724352371093e-07
448,387752.9784921143,2.297565141457419e-07
