,E (eV),I (erg/s/cm**2)
0,1.360543186192048,0.0003487919532703436
1,2.0408011735840956,0.0004322689961944272
2,2.7210727666801198,0.0004384984134057302
3,3.401344359776144,0.0003286600678980736
4,4.081615952872168,0.0003722655151895341
5,4.761873940264215,0.0004323261104833508
6,5.4421455333602395,0.0004975328298605194
7,6.122417126456264,0.0005557942961564528
8,6.802688719552288,0.0006129430751805587
9,7.482946706944335,0.0008582579871052215
10,8.16321830004036,0.001101459947149027
11,8.843489893136384,0.0013061209674628677
12,9.523761486232408,0.0015325666394015965
13,10.204019473624456,0.0006177839392179902
14,10.884291066720479,0.0005634879110876001
15,11.564562659816504,0.00044037118850808306
16,12.244834252912527,0.00031394317215918514
17,12.92510584600855,0.0001418298487379728
18,13.7414208731606,7.1246888596995925e-06
19,14.421692466256623,6.288032353389154e-06
20,15.101964059352648,5.8635013353463655e-06
21,15.782222046744696,4.724379164193461e-06
22,16.46249363984072,5.440774271105599e-06
23,17.142765232936743,5.3063888730239315e-06
24,17.823036826032766,5.2647526815013425e-06
25,18.503294813424816,5.198412305247062e-06
26,19.18356640652084,5.043830581481818e-06
27,19.863837999616862,5.0854778829161295e-06
28,20.544109592712886,5.528226369106851e-06
29,21.224367580104932,5.259138940235339e-06
30,21.90463917320096,5.025478174821218e-06
31,22.584910766296982,5.1076775742652e-06
32,23.26518235939301,6.107815669775709e-06
33,23.945440346785055,5.987963780737572e-06
34,24.62571193988108,5.65640535190418e-06
35,25.305983532977105,5.196544386998345e-06
36,25.986255126073125,5.527249998516548e-06
37,26.66652671916915,5.14550790331825e-06
38,27.210741272505174,4.860963830382679e-06
39,27.3467847065612,4.893553586559121e-06
40,27.4828417463212,5.310724950402086e-06
41,27.618898786081196,4.672678642766515e-06
42,27.7549558258412,4.745463279636565e-06
43,27.89099925989722,5.1514887931987495e-06
44,28.02705629965722,4.805130642744994e-06
45,28.16311333941722,4.581309829408672e-06
46,28.299170379177223,5.392315562488794e-06
47,28.435213813233247,4.8595366405114035e-06
48,28.571270852993244,5.069330378536195e-06
49,28.70732789275325,5.150443113093216e-06
50,28.843384932513246,4.9502719191492304e-06
51,28.97942836656927,5.097753131196418e-06
52,29.115485406329267,5.057249437693181e-06
53,29.25154244608927,4.94366006432757e-06
54,29.387599485849268,4.794998280590489e-06
55,29.523642919905292,4.5539397864005075e-06
56,29.659699959665296,4.661888545470935e-06
57,29.795756999425294,4.845421174366707e-06
58,29.931814039185298,4.693190209235474e-06
59,30.067857473241315,4.594201398425496e-06
60,30.20391451300132,4.6959450736707295e-06
61,30.339971552761316,4.420685091806825e-06
62,30.47602859252132,4.59569901471848e-06
63,30.612072026577344,4.548728168610444e-06
64,30.74812906633734,4.166653161084351e-06
65,30.884186106097346,4.289422827048101e-06
66,31.020243145857343,4.260423726663435e-06
67,31.156286579913367,4.102088081990959e-06
68,31.292343619673364,4.031799490064496e-06
69,31.42840065943337,3.995074461594704e-06
70,31.564457699193365,3.794948076593209e-06
71,31.70050113324939,4.173714368774982e-06
72,31.836558173009394,3.6922680050155694e-06
73,31.97261521276939,3.910272578959838e-06
74,32.108672252529395,3.867700806831229e-06
75,32.244715686585415,3.7762180255000967e-06
76,32.38077272634541,3.7726571308665215e-06
77,32.51682976610541,3.6053170773355996e-06
78,32.652886805865414,3.921900976471348e-06
79,32.78893023992144,3.5929392197177342e-06
80,32.92498727968144,4.068994786193764e-06
81,33.06104431944144,3.8487062374591306e-06
82,33.19710135920144,4.081762417116211e-06
83,33.33314479325746,4.012142900017794e-06
84,33.46920183301746,3.975597437795507e-06
85,33.60525887277746,4.141180630197946e-06
86,33.74131591253746,3.7867069627531247e-06
87,33.87735934659349,4.07110545199905e-06
88,34.01341638635349,3.6454795237149488e-06
89,34.14947342611349,4.019304190832303e-06
90,34.285530465873485,3.8093392688104143e-06
91,34.421573899929506,4.10934516245902e-06
92,34.55763093968951,3.894455665295302e-06
93,34.69368797944951,3.9062055787103825e-06
94,34.82974501920951,3.914401603166767e-06
95,34.96578845326554,4.114051938723947e-06
96,35.101845493025536,4.169074341530967e-06
97,35.23790253278553,4.284684137552573e-06
98,35.37395957254554,4.425615171778704e-06
99,35.51000300660156,4.330588889064107e-06
100,35.646060046361555,4.574138635022017e-06
101,35.78211708612156,4.6003165094946235e-06
102,35.918174125881556,4.624137211097857e-06
103,36.054217559937584,4.547776332277985e-06
104,36.19027459969758,4.903571589244944e-06
105,36.326331639457585,5.027126005633894e-06
106,36.46238867921758,4.915666354394805e-06
107,36.59844571897758,5.056461762109503e-06
108,36.73448915303361,5.139734553763412e-06
109,36.870546192793604,5.3452815863121725e-06
110,37.00660323255361,5.281362339770892e-06
111,37.142660272313606,5.8365614852196815e-06
112,37.27870370636963,5.553375922971474e-06
113,37.41476074612963,6.0712190626418675e-06
114,37.55081778588963,5.919288109211293e-06
115,37.686874825649625,6.456947778611905e-06
116,37.82291825970565,6.159132732867943e-06
117,37.958975299465656,6.7540986197107145e-06
118,38.095032339225654,6.31675070373031e-06
119,38.23108937898566,6.9170243425250795e-06
120,38.36713281304168,6.565164187425316e-06
121,38.503189852801675,7.071115294650812e-06
122,38.63924689256167,7.07918662278975e-06
123,38.77530393232168,7.4755054879752415e-06
124,38.911347366377704,7.512531228508313e-06
125,39.0474044061377,8.13055592285615e-06
126,39.183461445897706,8.072492952098195e-06
127,39.3195184856577,8.753970089033785e-06
128,39.45556191971372,8.81830790522675e-06
129,39.59161895947372,9.377793348412642e-06
130,39.727675999233725,9.589381084371195e-06
131,39.86373303899372,9.593181991077703e-06
132,39.99977647304975,1.0507746259756264e-05
133,40.135833512809754,1.0320006374603402e-05
134,40.27189055256975,1.1240514291860928e-05
135,40.407947592329755,1.1192339119040687e-05
136,40.54399102638577,1.2227373042246683e-05
137,40.68004806614577,1.2322830727023168e-05
138,40.81610510590577,1.2027038060900587e-05
139,40.952162145665774,2.7792679190417007e-06
140,41.0882055797218,2.7985078148828355e-06
141,41.2242626194818,2.8385724257480453e-06
142,41.3603196592418,2.8510182434103007e-06
143,41.4963766990018,2.735866888501589e-06
144,41.63242013305782,2.827659937107098e-06
145,41.76847717281782,2.6155214734285335e-06
146,41.90453421257782,2.71647527293318e-06
147,42.04059125233782,2.447162062270349e-06
148,42.17663468639385,2.6643016641206956e-06
149,42.31269172615385,2.6439517613270575e-06
150,42.44874876591385,2.4694195739596847e-06
151,42.584805805673845,2.908080063929572e-06
152,42.720849239729866,2.44720477675966e-06
153,42.85690627948987,2.9429972911160105e-06
154,42.99296331924987,2.619298264683036e-06
155,43.12902035900987,2.735737792223251e-06
156,43.2650637930659,2.755481606357236e-06
157,43.401120832825896,2.5140565167108915e-06
158,43.53717787258589,2.743436163908956e-06
159,43.67323491234589,2.5025459226173923e-06
160,43.80927834640192,2.5712338168327442e-06
161,43.945335386161915,2.483497545646675e-06
162,44.08139242592192,2.3602448408891744e-06
163,44.217449465681916,2.410022024450925e-06
164,44.353492899737944,2.195162060795212e-06
165,44.48954993949794,2.161819564666341e-06
166,44.62560697925794,2.119361785168371e-06
167,44.761664019017935,2.1306390847414807e-06
168,44.89770745307396,2.1651233255821594e-06
169,45.03376449283397,2.076103581454676e-06
170,45.169821532593964,1.972185670477427e-06
171,45.30587857235397,1.8448822149493543e-06
172,45.44192200640999,1.6720620214032381e-06
173,45.577979046169986,1.4991590935332707e-06
174,45.71403608592998,1.5500992234753331e-06
175,45.85009312568999,1.3757692004947705e-06
176,45.986136559746015,1.3700848340068235e-06
177,46.12219359950601,1.4391093692447924e-06
178,46.258250639266016,1.0866545478282e-06
179,46.394307679026014,1.2868973158634942e-06
180,46.53035111308204,1.1766259377157143e-06
181,46.66640815284203,1.0935744616695628e-06
182,46.802465192602035,1.2178781554219932e-06
183,46.93852223236203,8.679720758193968e-07
184,47.07456566641806,1.0984844973650116e-06
185,47.210622706178064,1.0424071615784881e-06
186,47.34667974593806,7.033812685220895e-07
187,47.482736785698066,9.55008051308255e-07
188,47.618780219754086,7.297401601478109e-07
189,47.75483725951408,5.510140776561227e-07
190,47.89089429927408,6.156665773523826e-07
191,48.026951339034085,2.8837415127089586e-07
192,48.16299477309011,3.8673661079485166e-07
193,48.29905181285011,3.466110509663243e-07
194,48.43506041766452,1.1837324257897e-06
195,48.43515728755569,1.1837347932489386e-06
196,48.57116589237011,1.0956394568263928e-06
197,48.707222932130115,1.1474815203910308e-06
198,48.84326636618613,1.2135213787930271e-06
199,48.97932340594613,9.108592244375039e-07
200,49.11538044570613,8.296487724567627e-07
201,49.251437485466134,8.656785564947225e-07
202,49.38748091952216,6.643058522796083e-07
203,49.52353795928216,5.986353271845656e-07
204,49.65959499904216,6.155840397473284e-07
205,49.79565203880216,5.580743512175646e-07
206,49.93169547285818,4.239218903012819e-07
207,50.06775251261818,4.177040747227759e-07
208,50.20380955237818,4.073454095581938e-07
209,50.33986659213818,3.2516030660617064e-07
210,50.47591002619421,3.4226433271443866e-07
211,50.61196706595421,3.3582943468170897e-07
212,50.74802410571421,1.3794161623005075e-07
213,50.884081145474205,1.570236006359146e-07
214,51.02007355950089,2.1079587451685953e-07
215,51.02017559955957,2.107962961082432e-07
216,51.15618161929023,3.502360911776426e-07
217,51.29223865905023,2.497522133219093e-07
218,51.42829569881023,3.663395178036203e-07
219,51.56433913286626,2.330900145989694e-07
220,51.700396172626256,1.411664486628531e-07
221,51.83645321238625,1.7829703143214227e-07
222,51.97251025214625,1.1276349521936687e-07
223,52.10855368620228,7.668904017744484e-08
224,52.24455848141958,6.1243142890963e-08
225,52.244662970504976,6.124326537721179e-08
226,52.38066776572228,1.304981031272346e-07
227,52.516724805482276,1.4522335437898937e-07
228,52.652768239538304,1.0279385742908387e-07
229,52.7888252792983,5.600535817950521e-08
230,52.92482939423041,3.414327034076057e-07
231,52.924935243886196,3.4143338627299317e-07
232,53.060939358818295,2.4027932338488125e-07
233,53.19698279287432,2.5740338792564414e-07
234,53.33303983263433,3.343898554571069e-07
235,53.469096872394324,2.1788128781972193e-07
236,53.60515391215433,2.2660469385376578e-07
237,53.74119734621035,3.284718692441051e-07
238,53.877254385970346,2.0900388448496248e-07
239,54.01331142573034,2.071804626114802e-07
240,54.14936846549035,3.370365101354448e-07
241,54.285411899546375,1.9619188070829253e-07
242,54.55752597906638,4.4933307600066024e-08
243,61.36021469861866,3.347967663262932e-09
244,68.16288981246697,1.6659746355236362e-09
245,74.96557853201926,2.038207372885384e-09
246,81.76825364586757,1.4181189047767744e-09
247,88.57094236541987,2.053970025593884e-09
248,95.37363108497215,1.9718066988825756e-09
249,102.17630619882047,1.6825592622460756e-09
250,108.97899491837275,1.7495561693820318e-09
251,115.78168363792504,1.8502761796853584e-09
252,122.58435875177334,1.9461015573596623e-09
253,129.38704747132562,2.0668419856440556e-09
254,136.05367915111793,2.2001390247154576e-09
255,136.1897361908779,2.202989426172044e-09
256,204.0805119238249,3.856364601626663e-09
257,272.10735830223587,6.612012199765368e-09
258,340.1341910749428,1.1738965137094609e-08
259,408.1610238476498,1.6824888856169658e-08
260,476.18787022606074,2.1969569546324322e-08
261,544.2147029987677,2.6697758289537928e-08
262,612.2415493771787,3.1480951813502986e-08
263,680.2683821498856,3.706734473542167e-08
264,748.2952149225927,4.227475300848605e-08
265,816.3220613010035,4.7111239401027316e-08
266,884.3488940737104,5.162081618591521e-08
267,952.3757404521215,5.585230179719443e-08
268,1020.4025732248285,5.985044376440551e-08
269,1088.4294196032395,6.365321901586961e-08
270,1156.4562523759464,6.729174293729811e-08
271,1224.4830851486533,7.079112769323124e-08
272,1292.5099315270643,7.417154192261468e-08
273,1360.5367642997712,7.744919897010442e-08
274,1496.590443450889,8.374617372671358e-08
275,1632.644122602007,8.976042508938993e-08
276,1768.697801753125,9.554526411325449e-08
277,1904.7514672985392,1.0113817640489598e-07
278,2040.805146449657,1.0656639458279365e-07
279,2176.8588256007747,1.1185031055466235e-07
280,2312.912504751893,1.1700562483201452e-07
281,2448.966183903011,1.2204472960036811e-07
282,2585.0198630541286,1.2697762406733922e-07
283,2721.0735285995424,1.3181253446150396e-07
284,2857.1272077506605,1.3655634766038054e-07
285,2993.180886901778,1.4121491302312825e-07
286,3129.2345660528963,1.4579326645710093e-07
287,3265.288245204014,1.502957933826352e-07
288,3401.3419107494283,1.5472635099717386e-07
289,3537.3955899005464,1.5908836451812336e-07
290,3673.4492690516645,1.6338489635985035e-07
291,3809.502948202782,1.6761870573535324e-07
292,3945.5566273539002,1.7179229374513365e-07
293,4081.610306505018,1.759079399487539e-07
294,4217.663972050432,1.7996773190778198e-07
295,4353.717651201549,1.839735920376599e-07
296,4489.771330352668,1.8792729465474423e-07
297,4625.825009503786,1.918304853600834e-07
298,4761.878688654903,1.9568469515724357e-07
299,4897.932354200318,1.9949135214475055e-07
300,5033.986033351435,2.0325179429035704e-07
301,5170.039712502553,2.0696727515596528e-07
302,5306.0933916536715,2.1063897428099227e-07
303,5442.147070804789,2.1426800330383928e-07
304,5578.200749955907,2.178554120667522e-07
305,5714.254415501321,2.214021934086181e-07
306,5850.308094652439,2.2490929008996648e-07
307,5986.361773803556,2.2837759577082417e-07
308,6122.415452954675,2.318079607376013e-07
309,6258.469132105793,2.3520119479599398e-07
310,6394.522797651206,2.38558069893582e-07
311,6530.576476802325,2.418793247264178e-07
312,6666.630155953442,2.4516566406186947e-07
313,6802.68383510456,2.4841776306971974e-07
314,6938.737514255678,2.5163626893479865e-07
315,7074.791179801093,2.548218020505571e-07
316,7210.8448589522095,2.5797495956570394e-07
317,7346.898538103329,2.6109631428269804e-07
318,7482.952217254446,2.6418641773447107e-07
319,7619.005896405564,2.6724580103416563e-07
320,7755.059575556682,2.7027497621590234e-07
321,7891.113241102096,2.73274436706298e-07
322,8027.166920253213,2.7624466021110026e-07
323,8163.220599404332,2.7918610697614444e-07
324,8299.27427855545,2.8209922226607746e-07
325,8435.327957706568,2.849844370704413e-07
326,8571.38162325198,2.8784216810034814e-07
327,8707.435302403099,2.9067282032093296e-07
328,8843.488981554217,2.934767849896959e-07
329,8979.542660705336,2.962544421864852e-07
330,9115.596339856453,2.990061604827838e-07
331,9251.650019007571,3.0173229808279706e-07
332,9387.703684552984,3.044332022322651e-07
333,9523.757363704102,3.071092120917257e-07
334,9659.81104285522,3.097606559668701e-07
335,9795.86472200634,3.123878538385009e-07
336,9931.918401157456,3.1499111716160443e-07
337,10067.97206670287,3.175707488003351e-07
338,10204.025745853987,3.2012704517445863e-07
339,10340.079425005106,3.2266029388224465e-07
340,10476.133104156224,3.2517077592477516e-07
341,10612.186783307343,3.2765876533928167e-07
342,10748.24046245846,3.301245294183819e-07
343,10884.294128003874,3.3256832898859385e-07
344,11020.34780715499,3.349904198083713e-07
345,11156.40148630611,3.3739105058075467e-07
346,11292.455165457228,3.397704648658583e-07
347,11428.508844608346,3.421289006255561e-07
348,11564.562510153759,3.444665902836038e-07
349,11700.616189304877,3.4678376238646347e-07
350,11836.669868455994,3.490806394816327e-07
351,11972.723547607113,3.51357439626927e-07
352,12108.777226758231,3.53614376635524e-07
353,12244.83090590935,3.558516596514148e-07
354,12380.884571454762,3.5806949326954964e-07
355,12516.938250605881,3.602680793633491e-07
356,12652.991929756998,3.6244761436373193e-07
357,12789.045608908116,3.64608291449911e-07
358,12925.099288059235,3.6675030008433627e-07
359,13061.15295360465,3.688738257001097e-07
360,13197.206632755768,3.709790513750532e-07
361,13333.260311906884,3.7306615580953826e-07
362,13469.313991058003,3.7513531462734204e-07
363,13605.36767020912,3.771867005009612e-07
364,16326.441198808663,4.147233196106745e-07
365,19047.514727408205,4.463395335825108e-07
366,21768.58826961345,4.7290115903796775e-07
367,24489.661798212994,4.950870151826008e-07
368,27210.735326812537,5.134482531925003e-07
369,29931.808869017783,5.284438229914835e-07
370,32652.882397617326,5.404631621705201e-07
371,35373.95592621687,5.498415052141415e-07
372,38095.029468422115,5.568706662610411e-07
373,40816.10299702166,5.618069096893719e-07
374,43537.1765392269,5.648768716164978e-07
375,46258.25006782645,5.662821257403485e-07
376,48979.32359642599,5.662027853147459e-07
377,51700.39713863123,5.648003961793748e-07
378,54421.47066723078,5.622203063353943e-07
379,57142.54419583032,5.585937771795536e-07
380,59863.617738035566,5.540397755236653e-07
381,62584.691266635105,5.486665966053298e-07
382,65305.76479523465,5.42573547136735e-07
383,68026.8383374399,5.358527691545092e-07
384,70747.91186603945,5.285912845164941e-07
385,73468.98539463898,5.208734629570775e-07
386,76190.05893684423,5.127840581806755e-07
387,78911.13246544376,5.044113461634612e-07
388,81632.20599404332,4.958518787326788e-07
389,84353.27953624855,4.872148848722835e-07
390,87074.35306484811,4.786264299855988e-07
391,89795.42659344764,4.7023812811523925e-07
392,92516.5001356529,4.622204178526741e-07
393,95237.57366425243,4.545855318050867e-07
394,97958.64719285197,4.4729133570735753e-07
395,100679.72073505721,4.4031377286632463e-07
396,103400.79426365678,4.3363107699680175e-07
397,106121.86779225631,4.27223500935456e-07
398,108842.94133446156,4.210730831767212e-07
399,111564.0148630611,4.151634463820059e-07
400,114285.08839166064,4.094796234528957e-07
401,117006.16193386588,4.040079058089191e-07
402,119727.23546246543,3.987357110782007e-07
403,122448.30900467066,3.936514678440397e-07
404,125169.38253327021,3.887445135446005e-07
405,127890.45606186974,3.840050060082918e-07
406,130611.529604075,3.794238437772845e-07
407,133332.60313267456,3.7499259641104216e-07
408,136053.6766612741,3.707034430302908e-07
409,138774.75020347934,3.665491166146481e-07
410,141495.8237320789,3.6252285479237663e-07
411,144216.89726067844,3.586183562992853e-07
412,146937.97080288368,3.5482974131023394e-07
413,149659.04433148322,3.5115151613595833e-07
414,156461.72816658777,3.424059754273201e-07
415,163264.4120016923,3.342472243364105e-07
416,170067.0958367969,3.2661378432066333e-07
417,176869.77965829574,3.1945275324291576e-07
418,183672.4634934003,3.1271833346844797e-07
419,190475.14732850486,3.063706561421821e-07
420,197277.83116360943,3.003748343074102e-07
421,204080.51499871397,2.9470019422193187e-07
422,210883.19883381855,2.893196460332009e-07
423,217685.88266892312,2.84209165395217e-07
424,224488.56649042197,2.793473636287272e-07
425,231291.25032552652,2.7471512938817045e-07
426,238093.93416063106,2.702953272048227e-07
427,244896.61799573564,2.6607254403446605e-07
428,251699.30183084018,2.6203287391653715e-07
429,258501.98566594475,2.5816373455191923e-07
430,265304.6695010493,2.544537105290355e-07
431,272107.3533225482,2.5089241828046704e-07
432,278910.0371576527,2.4747039006350774e-07
433,285712.7209927573,2.44178973085324e-07
434,292515.4048278619,2.410102419050171e-07
435,299318.08866296645,2.3795692199719494e-07
436,306120.77249807096,2.3501232326465917e-07
437,312923.45633317553,2.3217028090459458e-07
438,319726.1401682801,2.2942510423629425e-07
439,326528.82398977893,2.267715306857691e-07
440,333331.50782488356,2.2420468585912118e-07
441,340134.1916599881,2.2172004735750658e-07
442,346936.87549509265,2.193134131103871e-07
443,353739.5593301972,2.1698087284041202e-07
444,360542.24316530174,2.1471878264709745e-07
445,367344.9270004063,2.125237424682907e-07
446,374147.6108219052,2.10392575214845e-07
447,380950.2946570097,2.08322308811785e-07
448,387752.9784921143,2.063101592624337e-07
