,E (eV),I (erg/s/cm**2)
0,1.360543186192048,0.00041914561706926157
1,2.0408011735840956,0.0005250926428552185
2,2.7210727666801198,0.0005185033551966958
3,3.401344359776144,0.00039721742135028225
4,4.081615952872168,0.0004597690701623509
5,4.761873940264215,0.0005270208106554668
6,5.4421455333602395,0.0006068671904121302
7,6.122417126456264,0.0006733987080142082
8,6.802688719552288,0.0007616959892491346
9,7.482946706944335,0.0010682902601295947
10,8.16321830004036,0.0012585994448228925
11,8.843489893136384,0.0014501987506340104
12,9.523761486232408,0.0016315456211049644
13,10.204019473624456,0.0006909920602171572
14,10.884291066720479,0.000622734715504294
15,11.564562659816504,0.0004841005746941455
16,12.244834252912527,0.00033972369362423146
17,12.92510584600855,0.00016663253664125812
18,13.7414208731606,8.14445859454731e-06
19,14.421692466256623,7.341410232223648e-06
20,15.101964059352648,6.692126579192645e-06
21,15.782222046744696,5.5785646577165884e-06
22,16.46249363984072,6.254497939870777e-06
23,17.142765232936743,6.124597980487057e-06
24,17.823036826032766,5.983157569533066e-06
25,18.503294813424816,5.934561634234322e-06
26,19.18356640652084,5.918066685251804e-06
27,19.863837999616862,5.8682719604861945e-06
28,20.544109592712886,6.145349732425486e-06
29,21.224367580104932,6.0494065456753245e-06
30,21.90463917320096,5.754716433639483e-06
31,22.584910766296982,5.749545013155542e-06
32,23.26518235939301,6.751154489330294e-06
33,23.945440346785055,6.788835506907643e-06
34,24.62571193988108,6.435555325334335e-06
35,25.305983532977105,5.901593635948953e-06
36,25.986255126073125,6.061642321659664e-06
37,26.66652671916915,5.644098618323935e-06
38,27.210741272505174,5.649390687051293e-06
39,27.3467847065612,5.560947579430581e-06
40,27.4828417463212,5.5522801604652195e-06
41,27.618898786081196,5.495137485618788e-06
42,27.7549558258412,5.4672099781023795e-06
43,27.89099925989722,5.387204188169387e-06
44,28.02705629965722,5.602045098634704e-06
45,28.16311333941722,5.105340284525326e-06
46,28.299170379177223,5.909615923458293e-06
47,28.435213813233247,5.467012548309603e-06
48,28.571270852993244,5.4711831449439285e-06
49,28.70732789275325,5.649359801174531e-06
50,28.843384932513246,5.500724798825391e-06
51,28.97942836656927,5.6816313600062005e-06
52,29.115485406329267,5.503277069613312e-06
53,29.25154244608927,5.498943330535481e-06
54,29.387599485849268,5.241557151166351e-06
55,29.523642919905292,5.009722060198519e-06
56,29.659699959665296,5.226110892723364e-06
57,29.795756999425294,5.173282216993797e-06
58,29.931814039185298,5.257984065052996e-06
59,30.067857473241315,5.214265709725754e-06
60,30.20391451300132,5.128764467101599e-06
61,30.339971552761316,5.029865561571603e-06
62,30.47602859252132,4.8816737445599225e-06
63,30.612072026577344,5.009831840465431e-06
64,30.74812906633734,4.535129822649773e-06
65,30.884186106097346,4.766588809274051e-06
66,31.020243145857343,4.615843176721827e-06
67,31.156286579913367,4.57381616973818e-06
68,31.292343619673364,4.557816161110538e-06
69,31.42840065943337,4.4146830417045595e-06
70,31.564457699193365,4.506665140866246e-06
71,31.70050113324939,4.4698470629719625e-06
72,31.836558173009394,4.460243551168846e-06
73,31.97261521276939,4.224814486485465e-06
74,32.108672252529395,4.449274279596906e-06
75,32.244715686585415,4.163111170176708e-06
76,32.38077272634541,4.2977205989072645e-06
77,32.51682976610541,4.0768478540036836e-06
78,32.652886805865414,4.384796462892721e-06
79,32.78893023992144,4.185563952040122e-06
80,32.92498727968144,4.399589617264931e-06
81,33.06104431944144,4.497550479827678e-06
82,33.19710135920144,4.448213211900804e-06
83,33.33314479325746,4.651504887683661e-06
84,33.46920183301746,4.444874840394784e-06
85,33.60525887277746,4.745215355322831e-06
86,33.74131591253746,4.314125585625181e-06
87,33.87735934659349,4.648202088215314e-06
88,34.01341638635349,4.192833783315799e-06
89,34.14947342611349,4.60149160582898e-06
90,34.285530465873485,4.343614298447102e-06
91,34.421573899929506,4.706041235459584e-06
92,34.55763093968951,4.44037962884503e-06
93,34.69368797944951,4.597900003057471e-06
94,34.82974501920951,4.457230305685418e-06
95,34.96578845326554,4.858650175514144e-06
96,35.101845493025536,4.709322873293595e-06
97,35.23790253278553,5.0991656505049705e-06
98,35.37395957254554,5.018403762861527e-06
99,35.51000300660156,5.161490562523892e-06
100,35.646060046361555,5.182440700879536e-06
101,35.78211708612156,5.469998134221008e-06
102,35.918174125881556,5.349712137816822e-06
103,36.054217559937584,5.367104903907096e-06
104,36.19027459969758,5.716503682893631e-06
105,36.326331639457585,5.621729359329308e-06
106,36.46238867921758,5.770835899900837e-06
107,36.59844571897758,5.579877673248837e-06
108,36.73448915303361,6.0638403564332325e-06
109,36.870546192793604,5.899459941460572e-06
110,37.00660323255361,6.192765214373378e-06
111,37.142660272313606,6.360791475960914e-06
112,37.27870370636963,6.4600485874313195e-06
113,37.41476074612963,6.6790861684389095e-06
114,37.55081778588963,6.807703137582344e-06
115,37.686874825649625,7.123140551845104e-06
116,37.82291825970565,7.0243450976312244e-06
117,37.958975299465656,7.220573999497315e-06
118,38.095032339225654,7.220569015509082e-06
119,38.23108937898566,7.373415880284809e-06
120,38.36713281304168,7.469791620557312e-06
121,38.503189852801675,7.457686018846534e-06
122,38.63924689256167,7.988651961451169e-06
123,38.77530393232168,7.801488447969917e-06
124,38.911347366377704,8.457501216236889e-06
125,39.0474044061377,8.555703919757954e-06
126,39.183461445897706,8.463962310659572e-06
127,39.3195184856577,9.205704342858368e-06
128,39.45556191971372,9.093095482389274e-06
129,39.59161895947372,9.737696314920257e-06
130,39.727675999233725,9.701679315846785e-06
131,39.86373303899372,1.0656172871477388e-05
132,39.99977647304975,1.0702292061477898e-05
133,40.135833512809754,1.0609457393329601e-05
134,40.27189055256975,1.1441246906399573e-05
135,40.407947592329755,1.1299344170451919e-05
136,40.54399102638577,1.2415901394133036e-05
137,40.68004806614577,1.2301397428165437e-05
138,40.81610510590577,1.2341398823074473e-05
139,40.952162145665774,2.8948007709122158e-06
140,41.0882055797218,3.108745254439754e-06
141,41.2242626194818,3.080055297664244e-06
142,41.3603196592418,2.9948548024783623e-06
143,41.4963766990018,3.1413757199151867e-06
144,41.63242013305782,2.8132820116658995e-06
145,41.76847717281782,3.066070454875818e-06
146,41.90453421257782,2.7962348574850057e-06
147,42.04059125233782,2.6890142194673653e-06
148,42.17663468639385,2.9840030757001316e-06
149,42.31269172615385,2.6454211270689106e-06
150,42.44874876591385,2.9031501379118846e-06
151,42.584805805673845,2.886293991273864e-06
152,42.720849239729866,2.7364240744001918e-06
153,42.85690627948987,3.0832162443169377e-06
154,42.99296331924987,2.696554660105052e-06
155,43.12902035900987,2.985414960562066e-06
156,43.2650637930659,2.780307699730571e-06
157,43.401120832825896,2.732670707916935e-06
158,43.53717787258589,2.856391788464985e-06
159,43.67323491234589,2.551235539798904e-06
160,43.80927834640192,2.7574239296535227e-06
161,43.945335386161915,2.5411951590259237e-06
162,44.08139242592192,2.475865432292748e-06
163,44.217449465681916,2.5185434920720638e-06
164,44.353492899737944,2.195687095441409e-06
165,44.48954993949794,2.3408091630908832e-06
166,44.62560697925794,2.166120810100333e-06
167,44.761664019017935,2.1375362724006577e-06
168,44.89770745307396,2.3790014691705303e-06
169,45.03376449283397,1.9631156819450685e-06
170,45.169821532593964,2.0921196539563776e-06
171,45.30587857235397,1.9595664218331695e-06
172,45.44192200640999,1.5881018127756875e-06
173,45.577979046169986,1.7764506630230403e-06
174,45.71403608592998,1.4405502873000845e-06
175,45.85009312568999,1.4121382366105496e-06
176,45.986136559746015,1.5505465216732882e-06
177,46.12219359950601,1.2821117707245443e-06
178,46.258250639266016,1.3053781104142927e-06
179,46.394307679026014,1.2940455515514347e-06
180,46.53035111308204,1.0656170202202406e-06
181,46.66640815284203,1.2815565849135038e-06
182,46.802465192602035,1.1203704017170595e-06
183,46.93852223236203,9.420379029055628e-07
184,47.07456566641806,1.215451316353887e-06
185,47.210622706178064,8.538134866031986e-07
186,47.34667974593806,7.834607711813865e-07
187,47.482736785698066,9.684018190926383e-07
188,47.618780219754086,5.869186516529348e-07
189,47.75483725951408,6.000990010524013e-07
190,47.89089429927408,5.982726868768118e-07
191,48.026951339034085,3.026121542505014e-07
192,48.16299477309011,3.9969449755008883e-07
193,48.29905181285011,3.600100884758004e-07
194,48.43506041766452,1.2230797503568217e-06
195,48.43515728755569,1.2230821965105228e-06
196,48.57116589237011,1.0893585431118492e-06
197,48.707222932130115,1.1781899584198323e-06
198,48.84326636618613,1.2460421229470264e-06
199,48.97932340594613,9.476197879397214e-07
200,49.11538044570613,9.157455011381053e-07
201,49.251437485466134,9.115410356522052e-07
202,49.38748091952216,5.931574435226879e-07
203,49.52353795928216,6.611657802248223e-07
204,49.65959499904216,6.712531384323726e-07
205,49.79565203880216,4.684688325235292e-07
206,49.93169547285818,4.7539702888235475e-07
207,50.06775251261818,4.6646728360989105e-07
208,50.20380955237818,2.7962906763944415e-07
209,50.33986659213818,3.4989409317561035e-07
210,50.47591002619421,3.8015008976254234e-07
211,50.61196706595421,1.7149777432026918e-07
212,50.74802410571421,1.532471441063174e-07
213,50.884081145474205,1.720408450261224e-07
214,51.02007355950089,2.2518569360293903e-07
215,51.02017559955957,2.2518614397393593e-07
216,51.15618161929023,3.5857343325465725e-07
217,51.29223865905023,2.94299131499701e-07
218,51.42829569881023,3.5685834673464773e-07
219,51.56433913286626,2.550048586923257e-07
220,51.700396172626256,1.6809305927295089e-07
221,51.83645321238625,1.4109930559354694e-07
222,51.97251025214625,1.2922318996732646e-07
223,52.10855368620228,9.357741260460373e-08
224,52.24455848141958,7.774053422472643e-08
225,52.244662970504976,7.774068970574791e-08
226,52.38066776572228,1.6720487048102535e-07
227,52.516724805482276,1.6750572476282072e-07
228,52.652768239538304,1.258955232634516e-07
229,52.7888252792983,8.335145565691769e-08
230,52.92482939423041,3.334575145081708e-07
231,52.924935243886196,3.334581814231809e-07
232,53.060939358818295,2.6980244507038317e-07
233,53.19698279287432,3.5629266888949324e-07
234,53.33303983263433,3.33839732468471e-07
235,53.469096872394324,2.2392722561781563e-07
236,53.60515391215433,2.927304092660746e-07
237,53.74119734621035,3.3659309763478484e-07
238,53.877254385970346,2.1689154022926935e-07
239,54.01331142573034,2.3211208426357513e-07
240,54.14936846549035,3.594347541414773e-07
241,54.285411899546375,2.1979989543458342e-07
242,54.55752597906638,5.846528835032006e-08
243,61.36021469861866,5.516077076328526e-09
244,68.16288981246697,3.3472415786150355e-09
245,74.96557853201926,3.9087996743420745e-09
246,81.76825364586757,3.1546775246713278e-09
247,88.57094236541987,4.030223938372092e-09
248,95.37363108497215,4.0108088524535515e-09
249,102.17630619882047,3.728349931675162e-09
250,108.97899491837275,3.907862774263511e-09
251,115.78168363792504,4.132257424898547e-09
252,122.58435875177334,4.3631577038016614e-09
253,129.38704747132562,4.625629532269025e-09
254,136.05367915111793,4.909667966716423e-09
255,136.1897361908779,4.915662097469831e-09
256,204.0805119238249,8.403683846546176e-09
257,272.10735830223587,1.4133295896984104e-08
258,340.1341910749428,2.3649651497511374e-08
259,408.1610238476498,3.324814665280066e-08
260,476.18787022606074,4.252976838702205e-08
261,544.2147029987677,5.0816244139107435e-08
262,612.2415493771787,5.923925367074428e-08
263,680.2683821498856,6.901352255140144e-08
264,748.2952149225927,7.808827699507208e-08
265,816.3220613010035,8.65122903089577e-08
266,884.3488940737104,9.437824010207067e-08
267,952.3757404521215,1.01776844763598e-07
268,1020.4025732248285,1.0878671120813972e-07
269,1088.4294196032395,1.1547249097160287e-07
270,1156.4562523759464,1.218861430489904e-07
271,1224.4830851486533,1.280690883778926e-07
272,1292.5099315270643,1.3405433141279484e-07
273,1360.5367642997712,1.3986827310542593e-07
274,1496.590443450889,1.5106331131137384e-07
275,1632.644122602007,1.6178134200989102e-07
276,1768.697801753125,1.7210896085934228e-07
277,1904.7514672985392,1.821073042505255e-07
278,2040.805146449657,1.9182103974991722e-07
279,2176.8588256007747,2.0128383469245735e-07
280,2312.912504751893,2.105217917615582e-07
281,2448.966183903011,2.1955565782825506e-07
282,2585.0198630541286,2.2840228733827398e-07
283,2721.0735285995424,2.3707563535446603e-07
284,2857.1272077506605,2.4558745496129906e-07
285,2993.180886901778,2.539477829683119e-07
286,3129.2345660528963,2.6216530364814906e-07
287,3265.288245204014,2.7024761334037616e-07
288,3401.3419107494283,2.782014200260765e-07
289,3537.3955899005464,2.860327021268007e-07
290,3673.4492690516645,2.9374682154201284e-07
291,3809.502948202782,3.0134862308185114e-07
292,3945.5566273539002,3.0884250943115777e-07
293,4081.610306505018,3.1623250234255e-07
294,4217.663972050432,3.2352229191649206e-07
295,4353.717651201549,3.3071528265806463e-07
296,4489.771330352668,3.3781462141297034e-07
297,4625.825009503786,3.448232311933039e-07
298,4761.878688654903,3.5174383471045046e-07
299,4897.932354200318,3.58578974355055e-07
300,5033.986033351435,3.653310347908295e-07
301,5170.039712502553,3.720022521503614e-07
302,5306.0933916536715,3.7859473221891727e-07
303,5442.147070804789,3.851104608908878e-07
304,5578.200749955907,3.91551315178272e-07
305,5714.254415501321,3.979190712484417e-07
306,5850.308094652439,4.042154163682062e-07
307,5986.361773803556,4.104419508251875e-07
308,6122.415452954675,4.1660019807866193e-07
309,6258.469132105793,4.226916095797361e-07
310,6394.522797651206,4.2871756944333854e-07
311,6530.576476802325,4.346794025634486e-07
312,6666.630155953442,4.4057837350777287e-07
313,6802.68383510456,4.464156942033965e-07
314,6938.737514255678,4.5219252630077264e-07
315,7074.791179801093,4.5790998389398435e-07
316,7210.8448589522095,4.635691397596578e-07
317,7346.898538103329,4.691710229008788e-07
318,7482.952217254446,4.747166242148608e-07
319,7619.005896405564,4.802068984969317e-07
320,7755.059575556682,4.856427661256763e-07
321,7891.113241102096,4.910251141497962e-07
322,8027.166920253213,4.963548017287392e-07
323,8163.220599404332,5.016326564669462e-07
324,8299.27427855545,5.068594795733022e-07
325,8435.327957706568,5.120360459916595e-07
326,8571.38162325198,5.171631055662718e-07
327,8707.435302403099,5.222413871504746e-07
328,8843.488981554217,5.272715948546076e-07
329,8979.542660705336,5.322544125949178e-07
330,9115.596339856453,5.371905038735948e-07
331,9251.650019007571,5.420805135991927e-07
332,9387.703684552984,5.469250667808509e-07
333,9523.757363704102,5.517247741953106e-07
334,9659.81104285522,5.564802269174511e-07
335,9795.86472200634,5.61192001249704e-07
336,9931.918401157456,5.658606579830287e-07
337,10067.97206670287,5.704867428020144e-07
338,10204.025745853987,5.750707893639872e-07
339,10340.079425005106,5.796133160821509e-07
340,10476.133104156224,5.841148286695613e-07
341,10612.186783307343,5.885758210770719e-07
342,10748.24046245846,5.929967749635976e-07
343,10884.294128003874,5.97378160054908e-07
344,11020.34780715499,6.017204374773285e-07
345,11156.40148630611,6.060240550926877e-07
346,11292.455165457228,6.102894518985254e-07
347,11428.508844608346,6.14517056801593e-07
348,11564.562510153759,6.187072887267138e-07
349,11700.616189304877,6.228605596007792e-07
350,11836.669868455994,6.269772702539895e-07
351,11972.723547607113,6.3105781413935e-07
352,12108.777226758231,6.351025763346199e-07
353,12244.83090590935,6.391119339344983e-07
354,12380.884571454762,6.430862561330437e-07
355,12516.938250605881,6.470259061746857e-07
356,12652.991929756998,6.509312386846134e-07
357,12789.045608908116,6.548026019815797e-07
358,12925.099288059235,6.58640337381362e-07
359,13061.15295360465,6.624447793899417e-07
360,13197.206632755768,6.662162582633902e-07
361,13333.260311906884,6.699550959139859e-07
362,13469.313991058003,6.736616093198412e-07
363,13605.36767020912,6.773361095198158e-07
364,16326.441198808663,7.445384488228404e-07
365,19047.514727408205,8.01079956863558e-07
366,21768.58826961345,8.48522989970655e-07
367,24489.661798212994,8.880927581882079e-07
368,27210.735326812537,9.207841494892416e-07
369,29931.808869017783,9.474256268995858e-07
370,32652.882397617326,9.687201238223046e-07
371,35373.95592621687,9.852726537309616e-07
372,38095.029468422115,9.976097641795645e-07
373,40816.10299702166,1.0061937445332335e-06
374,43537.1765392269,1.0114333189536048e-06
375,46258.25006782645,1.0136918958778091e-06
376,48979.32359642599,1.0132940790378756e-06
377,51700.39713863123,1.0105309218134844e-06
378,54421.47066723078,1.005664399422808e-06
379,57142.54419583032,9.989311113495995e-07
380,59863.617738035566,9.90545613126731e-07
381,62584.691266635105,9.807036164258335e-07
382,65305.76479523465,9.695852260610977e-07
383,68026.8383374399,9.573583774711492e-07
384,70747.91186603945,9.441827561770957e-07
385,73468.98539463898,9.302140287501584e-07
386,76190.05893684423,9.156091874534935e-07
387,78911.13246544376,9.005315684643452e-07
388,81632.20599404332,8.851572475819587e-07
389,84353.27953624855,8.696835899050591e-07
390,87074.35306484811,8.543323795071621e-07
391,89795.42659344764,8.393604586649361e-07
392,92516.5001356529,8.250515821221296e-07
393,95237.57366425243,8.114251273047473e-07
394,97958.64719285197,7.984067203120529e-07
395,100679.72073505721,7.859534257500864e-07
396,103400.79426365678,7.740263964555626e-07
397,106121.86779225631,7.625903884034639e-07
398,108842.94133446156,7.516133447556013e-07
399,111564.0148630611,7.410660362293285e-07
400,114285.08839166064,7.309217501589336e-07
401,117006.16193386588,7.211560202255355e-07
402,119727.23546246543,7.117463898100338e-07
403,122448.30900467066,7.026722069588348e-07
404,125169.38253327021,6.939144418156709e-07
405,127890.45606186974,6.854555282583091e-07
406,130611.529604075,6.772792225013453e-07
407,133332.60313267456,6.693704783750581e-07
408,136053.6766612741,6.617153374872704e-07
409,138774.75020347934,6.54300829814964e-07
410,141495.8237320789,6.471148866272839e-07
411,144216.89726067844,6.401462614145368e-07
412,146937.97080288368,6.333844602951005e-07
413,149659.04433148322,6.268196781169407e-07
414,156461.72816658777,6.112109038921934e-07
415,163264.4120016923,5.966494076161976e-07
416,170067.0958367969,5.830254650476243e-07
417,176869.77965829574,5.70244659139962e-07
418,183672.4634934003,5.582252522062351e-07
419,190475.14732850486,5.468960879369566e-07
420,197277.83116360943,5.361949016763927e-07
421,204080.51499871397,5.260669484727686e-07
422,210883.19883381855,5.164638792632508e-07
423,217685.88266892312,5.073428164167146e-07
424,224488.56649042197,4.986655866556802e-07
425,231291.25032552652,4.903980804656543e-07
426,238093.93416063106,4.825097154515025e-07
427,244896.61799573564,4.7497298294283766e-07
428,251699.30183084018,4.6776306422485093e-07
429,258501.98566594475,4.6085750273094883e-07
430,265304.6695010493,4.542359247768329e-07
431,272107.3533225482,4.478797984141126e-07
432,278910.0371576527,4.4177222574010974e-07
433,285712.7209927573,4.3589776359226065e-07
434,292515.4048278619,4.302422670882833e-07
435,299318.08866296645,4.2479275290124026e-07
436,306120.77249807096,4.195372807009985e-07
437,312923.45633317553,4.1446484799817277e-07
438,319726.1401682801,4.0956529803901653e-07
439,326528.82398977893,4.048292385429162e-07
440,333331.50782488356,4.0024796977338893e-07
441,340134.1916599881,3.958134204255003e-07
442,346936.87549509265,3.9151809064527505e-07
443,353739.5593301972,3.8735500164924485e-07
444,360542.24316530174,3.8331764999314694e-07
445,367344.9270004063,3.793999670873864e-07
446,374147.6108219052,3.755962829247972e-07
447,380950.2946570097,3.7190129279783385e-07
448,387752.9784921143,3.683100280334776e-07
449,394555.66232721886,3.648178293734063e-07
