,E (eV),I (erg/s/cm**2)
0,1.360543186192048,0.00024145892283277076
1,2.0408011735840956,0.0003014991233243376
2,2.7210727666801198,0.0003215087849332036
3,3.401344359776144,0.00022658919470079083
4,4.081615952872168,0.00025889573059531713
5,4.761873940264215,0.00029797240193717557
6,5.4421455333602395,0.0003459653664724742
7,6.122417126456264,0.0003854857471688149
8,6.802688719552288,0.0004303682761736886
9,7.482946706944335,0.0004544458821670738
10,8.16321830004036,0.0007318728257940663
11,8.843489893136384,0.0010547378244793095
12,9.523761486232408,0.001294440911781247
13,10.204019473624456,0.0004767463235835381
14,10.884291066720479,0.00045254437223255677
15,11.564562659816504,0.0003699023476146932
16,12.244834252912527,0.0002618725660847897
17,12.92510584600855,0.00013589539502981618
18,13.7414208731606,5.709309577820522e-06
19,14.421692466256623,5.015452063492139e-06
20,15.101964059352648,4.64603158570688e-06
21,15.782222046744696,3.7552389683973664e-06
22,16.46249363984072,4.233785228101921e-06
23,17.142765232936743,4.155602959780151e-06
24,17.823036826032766,4.095878682955265e-06
25,18.503294813424816,4.109397891189942e-06
26,19.18356640652084,3.949723055900223e-06
27,19.863837999616862,3.971086042913421e-06
28,20.544109592712886,4.343056982127399e-06
29,21.224367580104932,4.333073587508936e-06
30,21.90463917320096,3.951992136060092e-06
31,22.584910766296982,4.045171041988514e-06
32,23.26518235939301,4.832632509847183e-06
33,23.945440346785055,4.9154487013265515e-06
34,24.62571193988108,4.689104733304725e-06
35,25.305983532977105,4.3485368293397056e-06
36,25.986255126073125,4.58128994878869e-06
37,26.66652671916915,4.047398886782158e-06
38,27.210741272505174,3.984230244254235e-06
39,27.3467847065612,4.443957646360974e-06
40,27.4828417463212,4.008660356985333e-06
41,27.618898786081196,3.7227861954669275e-06
42,27.7549558258412,4.20801495186588e-06
43,27.89099925989722,4.026141784061231e-06
44,28.02705629965722,3.791801971497138e-06
45,28.16311333941722,4.0116315541763715e-06
46,28.299170379177223,4.362564331377837e-06
47,28.435213813233247,3.907573662258491e-06
48,28.571270852993244,4.341404162339681e-06
49,28.70732789275325,4.159914385042605e-06
50,28.843384932513246,4.237793708234924e-06
51,28.97942836656927,4.32012507705968e-06
52,29.115485406329267,4.02341821533989e-06
53,29.25154244608927,4.261059524432927e-06
54,29.387599485849268,4.085504164018094e-06
55,29.523642919905292,3.5992394790749196e-06
56,29.659699959665296,4.026078496440554e-06
57,29.795756999425294,4.055059542235975e-06
58,29.931814039185298,3.782688378684337e-06
59,30.067857473241315,4.086938828880392e-06
60,30.20391451300132,3.931527471358725e-06
61,30.339971552761316,3.5172104868503085e-06
62,30.47602859252132,4.0620282530949195e-06
63,30.612072026577344,3.803180977158429e-06
64,30.74812906633734,3.403699504965536e-06
65,30.884186106097346,3.7328756056999946e-06
66,31.020243145857343,3.620774842853369e-06
67,31.156286579913367,3.1981171477835406e-06
68,31.292343619673364,3.470986794535551e-06
69,31.42840065943337,3.3184719493809063e-06
70,31.564457699193365,3.0755666951595457e-06
71,31.70050113324939,3.538768103957846e-06
72,31.836558173009394,3.0295256311018357e-06
73,31.97261521276939,3.0393395225942117e-06
74,32.108672252529395,3.337055312535229e-06
75,32.244715686585415,2.833602388883398e-06
76,32.38077272634541,3.0098612278966443e-06
77,32.51682976610541,3.2119897721273773e-06
78,32.652886805865414,2.860709361825941e-06
79,32.78893023992144,3.2597904927116978e-06
80,32.92498727968144,3.120185944615617e-06
81,33.06104431944144,3.2103024942278438e-06
82,33.19710135920144,3.4922146387283536e-06
83,33.33314479325746,3.093788058624384e-06
84,33.46920183301746,3.546712476096424e-06
85,33.60525887277746,3.1480504009675234e-06
86,33.74131591253746,3.248611711239808e-06
87,33.87735934659349,3.141407567940354e-06
88,34.01341638635349,2.8139756203823754e-06
89,34.14947342611349,3.2621869715341357e-06
90,34.285530465873485,2.903514577978341e-06
91,34.421573899929506,3.3795099158515164e-06
92,34.55763093968951,2.999652630832934e-06
93,34.69368797944951,3.052447315950345e-06
94,34.82974501920951,3.168131651858195e-06
95,34.96578845326554,3.1787901040469414e-06
96,35.101845493025536,3.398195185789561e-06
97,35.23790253278553,3.3662980382882887e-06
98,35.37395957254554,3.5919549543390266e-06
99,35.51000300660156,3.422807659664373e-06
100,35.646060046361555,3.6628310398267693e-06
101,35.78211708612156,3.756829033002674e-06
102,35.918174125881556,3.588496084815152e-06
103,36.054217559937584,3.74074860943517e-06
104,36.19027459969758,3.809690813031016e-06
105,36.326331639457585,4.050839735574084e-06
106,36.46238867921758,3.892104703580334e-06
107,36.59844571897758,3.959957515162276e-06
108,36.73448915303361,4.18092609520083e-06
109,36.870546192793604,4.083611309593735e-06
110,37.00660323255361,4.3733480792491045e-06
111,37.142660272313606,4.4379310595241105e-06
112,37.27870370636963,4.6677558233247185e-06
113,37.41476074612963,4.773041360496195e-06
114,37.55081778588963,5.039201159598043e-06
115,37.686874825649625,5.122277175445392e-06
116,37.82291825970565,5.231546158360055e-06
117,37.958975299465656,5.4274778255376275e-06
118,38.095032339225654,5.344233922726887e-06
119,38.23108937898566,5.614143000483931e-06
120,38.36713281304168,5.4994494885043134e-06
121,38.503189852801675,5.750912578297324e-06
122,38.63924689256167,5.963235358487749e-06
123,38.77530393232168,6.135847114377959e-06
124,38.911347366377704,6.890672424863158e-06
125,39.0474044061377,6.769290323933787e-06
126,39.183461445897706,7.535545490347933e-06
127,39.3195184856577,7.4664427298946935e-06
128,39.45556191971372,8.362738952146291e-06
129,39.59161895947372,8.132724508714144e-06
130,39.727675999233725,9.22205707956549e-06
131,39.86373303899372,9.191110894925227e-06
132,39.99977647304975,1.0283671028170839e-05
133,40.135833512809754,1.0118755586116737e-05
134,40.27189055256975,1.1225202539425891e-05
135,40.407947592329755,1.1205586506176108e-05
136,40.54399102638577,1.2479759093521633e-05
137,40.68004806614577,1.2521840032018864e-05
138,40.81610510590577,1.2254426488992875e-05
139,40.952162145665774,2.3718629981526454e-06
140,41.0882055797218,2.335883868804407e-06
141,41.2242626194818,2.4893370482030945e-06
142,41.3603196592418,2.352518803687509e-06
143,41.4963766990018,2.4633845303478654e-06
144,41.63242013305782,2.242086928919059e-06
145,41.76847717281782,2.426424562402132e-06
146,41.90453421257782,2.060446565577191e-06
147,42.04059125233782,2.312700355091058e-06
148,42.17663468639385,2.0506643901171386e-06
149,42.31269172615385,2.444869348646177e-06
150,42.44874876591385,2.0229852808555265e-06
151,42.584805805673845,2.5475061026470507e-06
152,42.720849239729866,2.1771307441190975e-06
153,42.85690627948987,2.52450602634147e-06
154,42.99296331924987,2.353037321735477e-06
155,43.12902035900987,2.4277584781687186e-06
156,43.2650637930659,2.3887729064720333e-06
157,43.401120832825896,2.341310656485547e-06
158,43.53717787258589,2.3545764549857424e-06
159,43.67323491234589,2.336652942112385e-06
160,43.80927834640192,2.255921476092933e-06
161,43.945335386161915,2.266365973144006e-06
162,44.08139242592192,2.1657933091908766e-06
163,44.217449465681916,2.091912922261402e-06
164,44.353492899737944,2.0570040289994423e-06
165,44.48954993949794,1.8692187714254308e-06
166,44.62560697925794,2.021289771374925e-06
167,44.761664019017935,1.910792504135528e-06
168,44.89770745307396,2.0153669432719673e-06
169,45.03376449283397,1.920892989487636e-06
170,45.169821532593964,1.8051149766598874e-06
171,45.30587857235397,1.7235354714511265e-06
172,45.44192200640999,1.4580536374792562e-06
173,45.577979046169986,1.496256364798103e-06
174,45.71403608592998,1.3131681455763254e-06
175,45.85009312568999,1.2973795283665731e-06
176,45.986136559746015,1.2940834053661781e-06
177,46.12219359950601,1.2012070472208739e-06
178,46.258250639266016,1.1743515724446093e-06
179,46.394307679026014,1.0853420697638472e-06
180,46.53035111308204,1.1674615467604087e-06
181,46.66640815284203,1.0335408851452887e-06
182,46.802465192602035,1.0400247297195592e-06
183,46.93852223236203,1.0527891187654508e-06
184,47.07456566641806,9.108177008460451e-07
185,47.210622706178064,1.0250412931300273e-06
186,47.34667974593806,7.658944393365983e-07
187,47.482736785698066,8.348330483835744e-07
188,47.618780219754086,7.521199632467224e-07
189,47.75483725951408,4.808944516730373e-07
190,47.89089429927408,5.883373147920248e-07
191,48.026951339034085,4.3895104091630326e-07
192,48.16299477309011,3.6225121970874347e-07
193,48.29905181285011,3.2337089866054863e-07
194,48.43506041766452,1.0241193017373071e-06
195,48.43515728755569,1.0241213499710544e-06
196,48.57116589237011,1.1296188489019172e-06
197,48.707222932130115,1.0147303338929928e-06
198,48.84326636618613,1.1432156849824888e-06
199,48.97932340594613,8.614458058246434e-07
200,49.11538044570613,8.08442318961054e-07
201,49.251437485466134,8.528684620128394e-07
202,49.38748091952216,6.016329012640265e-07
203,49.52353795928216,6.100916249185941e-07
204,49.65959499904216,5.471551127735273e-07
205,49.79565203880216,4.881636152843093e-07
206,49.93169547285818,4.7681618448843385e-07
207,50.06775251261818,3.7496129613585716e-07
208,50.20380955237818,3.488595253290421e-07
209,50.33986659213818,2.952315865492606e-07
210,50.47591002619421,2.955744888205738e-07
211,50.61196706595421,2.8844591099668107e-07
212,50.74802410571421,1.2165742815419505e-07
213,50.884081145474205,1.402114852379654e-07
214,51.02007355950089,1.923997988483316e-07
215,51.02017559955957,1.9240018364759581e-07
216,51.15618161929023,3.744487931500088e-07
217,51.29223865905023,2.1973137074095027e-07
218,51.42829569881023,3.168953514378722e-07
219,51.56433913286626,2.1158702764085964e-07
220,51.700396172626256,1.2197100449251076e-07
221,51.83645321238625,1.5410688992848224e-07
222,51.97251025214625,9.739632854475629e-08
223,52.10855368620228,6.240146305071331e-08
224,52.24455848141958,4.7508523301060995e-08
225,52.244662970504976,4.750861831807889e-08
226,52.38066776572228,1.0749734396505101e-07
227,52.516724805482276,1.568500237524295e-07
228,52.652768239538304,8.610784869951866e-08
229,52.7888252792983,4.046415294979179e-08
230,52.92482939423041,2.437920185487613e-07
231,52.924935243886196,2.4379250613278456e-07
232,53.060939358818295,2.6263458154980364e-07
233,53.19698279287432,2.142109500508379e-07
234,53.33303983263433,2.5222170715340996e-07
235,53.469096872394324,2.322884444434216e-07
236,53.60515391215433,1.9970071018312943e-07
237,53.74119734621035,2.841315651372265e-07
238,53.877254385970346,2.0978663295674186e-07
239,54.01331142573034,2.1628280933493949e-07
240,54.14936846549035,3.1070186906485673e-07
241,54.285411899546375,1.7422043632920883e-07
242,54.55752597906638,3.692162395026455e-08
243,61.36021469861866,2.0513582901907473e-09
244,68.16288981246697,7.39822633275684e-10
245,74.96557853201926,9.81404714998025e-10
246,81.76825364586757,4.90624229880869e-10
247,88.57094236541987,9.440488726907203e-10
248,95.37363108497215,8.397100466913281e-10
249,102.17630619882047,5.757635035146023e-10
250,108.97899491837275,5.806122703460623e-10
251,115.78168363792504,6.100062896951401e-10
252,122.58435875177334,6.29590121830057e-10
253,129.38704747132562,6.679533331807799e-10
254,136.05367915111793,7.13213150470871e-10
255,136.1897361908779,7.142298181330849e-10
256,204.0805119238249,1.2769381374119083e-09
257,272.10735830223587,2.221447114324841e-09
258,340.1341910749428,4.133857227195393e-09
259,408.1610238476498,6.067157338795272e-09
260,476.18787022606074,8.067306179600238e-09
261,544.2147029987677,9.961701462341709e-09
262,612.2415493771787,1.18716259542447e-08
263,680.2683821498856,1.4122911807162904e-08
264,748.2952149225927,1.6230650632880637e-08
265,816.3220613010035,1.819008780298005e-08
266,884.3488940737104,2.0015287208211855e-08
267,952.3757404521215,2.1724606774475544e-08
268,1020.4025732248285,2.3335905561052473e-08
269,1088.4294196032395,2.4864805495017025e-08
270,1156.4562523759464,2.6324333191398686e-08
271,1224.4830851486533,2.7725117146148017e-08
272,1292.5099315270643,2.907575266748807e-08
273,1360.5367642997712,3.038317925277223e-08
274,1496.590443450889,3.2889835542883754e-08
275,1632.644122602007,3.52787486831409e-08
276,1768.697801753125,3.757280050298489e-08
277,1904.7514672985392,3.978803284876358e-08
278,2040.805146449657,4.1936049489206583e-08
279,2176.8588256007747,4.40254950721218e-08
280,2312.912504751893,4.6062988799492366e-08
281,2448.966183903011,4.805372569971827e-08
282,2585.0198630541286,5.000187443247526e-08
283,2721.0735285995424,5.191084628907515e-08
284,2857.1272077506605,5.378348282044576e-08
285,2993.180886901778,5.5622186289789837e-08
286,3129.2345660528963,5.742901612632131e-08
287,3265.288245204014,5.9205758756101456e-08
288,3401.3419107494283,6.095397990543308e-08
289,3537.3955899005464,6.267506559641367e-08
290,3673.4492690516645,6.437025153082058e-08
291,3809.502948202782,6.604064825341275e-08
292,3945.5566273539002,6.768726012064249e-08
293,4081.610306505018,6.931100067938951e-08
294,4217.663972050432,7.091270505067984e-08
295,4353.717651201549,7.249314099191897e-08
296,4489.771330352668,7.405301612798939e-08
297,4625.825009503786,7.559298590811626e-08
298,4761.878688654903,7.711365941016704e-08
299,4897.932354200318,7.861560415138829e-08
300,5033.986033351435,8.009935137716623e-08
301,5170.039712502553,8.156539837357142e-08
302,5306.0933916536715,8.301421270666407e-08
303,5442.147070804789,8.44462347035755e-08
304,5578.200749955907,8.586187997129595e-08
305,5714.254415501321,8.726154132321278e-08
306,5850.308094652439,8.864559158108677e-08
307,5986.361773803556,9.001438392462241e-08
308,6122.415452954675,9.136825426401882e-08
309,6258.469132105793,9.270752244825684e-08
310,6394.522797651206,9.403249320420824e-08
311,6530.576476802325,9.534345800709457e-08
312,6666.630155953442,9.664069489887888e-08
313,6802.68383510456,9.792447020031799e-08
314,6938.737514255678,9.91950390625375e-08
315,7074.791179801093,1.0045264598752264e-07
316,7210.8448589522095,1.0169752639910123e-07
317,7346.898538103329,1.0292990589801046e-07
318,7482.952217254446,1.0415000176577752e-07
319,7619.005896405564,1.0535802322491212e-07
320,7755.059575556682,1.065541718632894e-07
321,7891.113241102096,1.0773864190795474e-07
322,8027.166920253213,1.0891162148301033e-07
323,8163.220599404332,1.1007329169722537e-07
324,8299.27427855545,1.1122382776430592e-07
325,8435.327957706568,1.1236339930473956e-07
326,8571.38162325198,1.134921701866414e-07
327,8707.435302403099,1.1461029980582095e-07
328,8843.488981554217,1.1571794202480756e-07
329,8979.542660705336,1.1681524626949663e-07
330,9115.596339856453,1.1790235755842074e-07
331,9251.650019007571,1.1897941665564224e-07
332,9387.703684552984,1.2004656018766926e-07
333,9523.757363704102,1.2110392139282937e-07
334,9659.81104285522,1.2215162938449517e-07
335,9795.86472200634,1.2318980992731283e-07
336,9931.918401157456,1.24218585411107e-07
337,10067.97206670287,1.2523807488128042e-07
338,10204.025745853987,1.262483947988364e-07
339,10340.079425005106,1.2724965821741852e-07
340,10476.133104156224,1.2824197548524604e-07
341,10612.186783307343,1.2922545430389157e-07
342,10748.24046245846,1.302001996679133e-07
343,10884.294128003874,1.3116631406273523e-07
344,11020.34780715499,1.3212389789516053e-07
345,11156.40148630611,1.3307304895110696e-07
346,11292.455165457228,1.3401386275392968e-07
347,11428.508844608346,1.3494643287309528e-07
348,11564.562510153759,1.3587085058081756e-07
349,11700.616189304877,1.3678720556562422e-07
350,11836.669868455994,1.3769558522000584e-07
351,11972.723547607113,1.3859607523762275e-07
352,12108.777226758231,1.3948875951911509e-07
353,12244.83090590935,1.4037372012961362e-07
354,12380.884571454762,1.4125103750858704e-07
355,12516.938250605881,1.4212079080292398e-07
356,12652.991929756998,1.4298305718146071e-07
357,12789.045608908116,1.438379124721796e-07
358,12925.099288059235,1.4468543100992784e-07
359,13061.15295360465,1.4552568557900594e-07
360,13197.206632755768,1.463587481081305e-07
361,13333.260311906884,1.471846886710921e-07
362,13469.313991058003,1.480035762004841e-07
363,13605.36767020912,1.4881547847038843e-07
364,16326.441198808663,1.6368126897120132e-07
365,19047.514727408205,1.7621932447130002e-07
366,21768.58826961345,1.8676916915862696e-07
367,24489.661798212994,1.9559692007938152e-07
368,27210.735326812537,2.029186144182722e-07
369,29931.808869017783,2.0891414544189638e-07
370,32652.882397617326,2.137361722255828e-07
371,35373.95592621687,2.175161278600657e-07
372,38095.029468422115,2.2036844898205504e-07
373,40816.10299702166,2.2239366066062946e-07
374,43537.1765392269,2.2368069676650363e-07
375,46258.25006782645,2.243086875465721e-07
376,48979.32359642599,2.2434836950105782e-07
377,51700.39713863123,2.2386321696535923e-07
378,54421.47066723078,2.2291036590058314e-07
379,57142.54419583032,2.2154137915493838e-07
380,59863.617738035566,2.198028932125712e-07
381,62584.691266635105,2.177373233374945e-07
382,65305.76479523465,2.153834790008819e-07
383,68026.8383374399,2.1277713474145236e-07
384,70747.91186603945,2.0995178099184932e-07
385,73468.98539463898,2.0693956951344236e-07
386,76190.05893684423,2.037724741378364e-07
387,78911.13246544376,2.0048385196300023e-07
388,81632.20599404332,1.9711044634240288e-07
389,84353.27953624855,1.9369460687435017e-07
390,87074.35306484811,1.9028746972627937e-07
391,89795.42659344764,1.8695226227020858e-07
392,92516.5001356529,1.837636065028729e-07
393,95237.57366425243,1.8072777081361217e-07
394,97958.64719285197,1.7782740342687022e-07
395,100679.72073505721,1.750529386512523e-07
396,103400.79426365678,1.7239572155629122e-07
397,106121.86779225631,1.6984790002208737e-07
398,108842.94133446156,1.6740233206614106e-07
399,111564.0148630611,1.6505250556604562e-07
400,114285.08839166064,1.6279246918048136e-07
401,117006.16193386588,1.60616771907943e-07
402,119727.23546246543,1.5852041062886542e-07
403,122448.30900467066,1.5649878423757754e-07
404,125169.38253327021,1.5454765304305942e-07
405,127890.45606186974,1.526631033806935e-07
406,130611.529604075,1.508415162894774e-07
407,133332.60313267456,1.4907953965142604e-07
408,136053.6766612741,1.473740635840204e-07
409,138774.75020347934,1.4572219846757938e-07
410,141495.8237320789,1.441212554426461e-07
411,144216.89726067844,1.4256872896042054e-07
412,146937.97080288368,1.4106228104426987e-07
413,149659.04433148322,1.3959972712403418e-07
414,156461.72816658777,1.3612228379516954e-07
415,163264.4120016923,1.3287816427718335e-07
416,170067.0958367969,1.2984292292516495e-07
417,176869.77965829574,1.269955243609395e-07
418,183672.4634934003,1.2431775809280785e-07
419,190475.14732850486,1.2179377114144122e-07
420,197277.83116360943,1.194096914507975e-07
421,204080.51499871397,1.1715332229890369e-07
422,210883.19883381855,1.150138919288331e-07
423,217685.88266892312,1.129818476189226e-07
424,224488.56649042197,1.1104868465826489e-07
425,231291.25032552652,1.0920680379115014e-07
426,238093.93416063106,1.0744939150643122e-07
427,244896.61799573564,1.0577031915594577e-07
428,251699.30183084018,1.0416405730841412e-07
429,258501.98566594475,1.026256029147963e-07
430,265304.6695010493,1.0115041687456411e-07
431,272107.3533225482,9.973437043447318e-08
432,278910.0371576527,9.83736989624492e-08
433,285712.7209927573,9.706496181798535e-08
434,292515.4048278619,9.580500765751076e-08
435,299318.08866296645,9.459094397127804e-08
436,306120.77249807096,9.342011053851163e-08
437,312923.45633317553,9.229005609064367e-08
438,319726.1401682801,9.119851785441104e-08
439,326528.82398977893,9.014340331933217e-08
440,333331.50782488356,8.912277425749547e-08
441,340134.1916599881,8.813483246139976e-08
442,346936.87549509265,8.717790706922563e-08
443,353739.5593301972,8.625044324005255e-08
444,360542.24316530174,8.535099210706441e-08
445,367344.9270004063,8.447820167682244e-08
446,374147.6108219052,8.363080865268443e-08
447,380950.2946570097,8.280763129219015e-08
