,E (eV),I (erg/s/cm**2)
0,1.360543186192048,0.0001564156802940501
1,2.0408011735840956,0.0001985164942068892
2,2.7210727666801198,0.00021985340451280514
3,3.401344359776144,0.00014763478609050804
4,4.081615952872168,0.00016943340068453864
5,4.761873940264215,0.00019355474903902584
6,5.4421455333602395,0.00022617712695523383
7,6.122417126456264,0.00025100102588009504
8,6.802688719552288,0.00027851074474225516
9,7.482946706944335,0.00029800406405275517
10,8.16321830004036,0.00032651496204399083
11,8.843489893136384,0.0006745559434063
12,9.523761486232408,0.001071350097052117
13,10.204019473624456,0.00032377041056442883
14,10.884291066720479,0.0003200828659396587
15,11.564562659816504,0.00029051518403563236
16,12.244834252912527,0.0002148365292885257
17,12.92510584600855,0.00011223221495827293
18,13.7414208731606,4.542418784452537e-06
19,14.421692466256623,3.937692100422034e-06
20,15.101964059352648,3.6297871094917667e-06
21,15.782222046744696,2.835747283903224e-06
22,16.46249363984072,3.254856190025238e-06
23,17.142765232936743,3.273031788603584e-06
24,17.823036826032766,3.1841630038445034e-06
25,18.503294813424816,3.1750996450450018e-06
26,19.18356640652084,3.1487262156773116e-06
27,19.863837999616862,3.0603086348585555e-06
28,20.544109592712886,3.436805877235186e-06
29,21.224367580104932,3.445145791723651e-06
30,21.90463917320096,3.1955262070978633e-06
31,22.584910766296982,3.1773807371881825e-06
32,23.26518235939301,3.8968404004867286e-06
33,23.945440346785055,3.9715528905243255e-06
34,24.62571193988108,3.7630584407140463e-06
35,25.305983532977105,3.5023610047781816e-06
36,25.986255126073125,3.7117282202080866e-06
37,26.66652671916915,3.3642928074070366e-06
38,27.210741272505174,3.3686374792606896e-06
39,27.3467847065612,3.4513155167860917e-06
40,27.4828417463212,3.257171292337199e-06
41,27.618898786081196,3.057034313938309e-06
42,27.7549558258412,3.4270767850077425e-06
43,27.89099925989722,3.1183202198304023e-06
44,28.02705629965722,3.1854273188870856e-06
45,28.16311333941722,3.2307465964324386e-06
46,28.299170379177223,3.4887317513492264e-06
47,28.435213813233247,3.2629844882385884e-06
48,28.571270852993244,3.5092581887425078e-06
49,28.70732789275325,3.4667236890588883e-06
50,28.843384932513246,3.462440282391911e-06
51,28.97942836656927,3.5155882677463505e-06
52,29.115485406329267,3.3853259187036606e-06
53,29.25154244608927,3.484487570388972e-06
54,29.387599485849268,3.3107703729282484e-06
55,29.523642919905292,3.036288078835243e-06
56,29.659699959665296,3.290613971078035e-06
57,29.795756999425294,3.191756955934264e-06
58,29.931814039185298,3.2983917238898447e-06
59,30.067857473241315,3.389829628421493e-06
60,30.20391451300132,3.05611773977726e-06
61,30.339971552761316,3.1069902097109952e-06
62,30.47602859252132,3.386319561525581e-06
63,30.612072026577344,3.0103718540464574e-06
64,30.74812906633734,2.9362810458718145e-06
65,30.884186106097346,3.0695010158333627e-06
66,31.020243145857343,2.9094924284693506e-06
67,31.156286579913367,2.856137727706987e-06
68,31.292343619673364,2.7787365225223914e-06
69,31.42840065943337,2.529309517113084e-06
70,31.564457699193365,2.8117902272474473e-06
71,31.70050113324939,2.8170096400584674e-06
72,31.836558173009394,2.3411164806968455e-06
73,31.97261521276939,2.6697311963405874e-06
74,32.108672252529395,2.5507468585447277e-06
75,32.244715686585415,2.3239119703510654e-06
76,32.38077272634541,2.5292087478704876e-06
77,32.51682976610541,2.3398190196476677e-06
78,32.652886805865414,2.475013560907345e-06
79,32.78893023992144,2.5835903431545233e-06
80,32.92498727968144,2.5167596857582e-06
81,33.06104431944144,2.7405297080660246e-06
82,33.19710135920144,2.7171193818017486e-06
83,33.33314479325746,2.6820112637227167e-06
84,33.46920183301746,2.8539485355179898e-06
85,33.60525887277746,2.5545308379334996e-06
86,33.74131591253746,2.6765448746125794e-06
87,33.87735934659349,2.4086919658624658e-06
88,34.01341638635349,2.346825054670062e-06
89,34.14947342611349,2.5217901259230116e-06
90,34.285530465873485,2.3418497495417874e-06
91,34.421573899929506,2.6646291472629472e-06
92,34.55763093968951,2.3640859278284438e-06
93,34.69368797944951,2.38208816681641e-06
94,34.82974501920951,2.3986725922567222e-06
95,34.96578845326554,2.507016452937895e-06
96,35.101845493025536,2.593363017893849e-06
97,35.23790253278553,2.7875930887200857e-06
98,35.37395957254554,2.7389809410690257e-06
99,35.51000300660156,2.7881965500721264e-06
100,35.646060046361555,3.0004640839727514e-06
101,35.78211708612156,2.8442930912298145e-06
102,35.918174125881556,3.0735462335088332e-06
103,36.054217559937584,2.7859504809770966e-06
104,36.19027459969758,3.1409106044151908e-06
105,36.326331639457585,3.2541506223461006e-06
106,36.46238867921758,2.945106690658931e-06
107,36.59844571897758,3.28068151937431e-06
108,36.73448915303361,3.0523487630415317e-06
109,36.870546192793604,3.374100803068016e-06
110,37.00660323255361,3.3654374646427446e-06
111,37.142660272313606,3.578191085949878e-06
112,37.27870370636963,3.7624740991430793e-06
113,37.41476074612963,3.736135792924838e-06
114,37.55081778588963,4.202137309729721e-06
115,37.686874825649625,4.051555754367865e-06
116,37.82291825970565,4.287868944359429e-06
117,37.958975299465656,4.397545042526644e-06
118,38.095032339225654,4.552912584859997e-06
119,38.23108937898566,4.641583038687396e-06
120,38.36713281304168,4.6439313620509615e-06
121,38.503189852801675,4.77615524548944e-06
122,38.63924689256167,5.137537618576026e-06
123,38.77530393232168,5.101113297277001e-06
124,38.911347366377704,5.65630361177615e-06
125,39.0474044061377,6.2038810028857105e-06
126,39.183461445897706,6.302332908651502e-06
127,39.3195184856577,6.930326657718515e-06
128,39.45556191971372,7.103440735066298e-06
129,39.59161895947372,7.66472450951444e-06
130,39.727675999233725,7.967787833093434e-06
131,39.86373303899372,8.837384533686216e-06
132,39.99977647304975,9.001941765828513e-06
133,40.135833512809754,9.947683063522445e-06
134,40.27189055256975,9.960136250727185e-06
135,40.407947592329755,1.1261037218893325e-05
136,40.54399102638577,1.1271069965928865e-05
137,40.68004806614577,1.2794571414843795e-05
138,40.81610510590577,1.249572695809745e-05
139,40.952162145665774,1.9968045123262288e-06
140,41.0882055797218,1.9356161450524264e-06
141,41.2242626194818,2.0992484754667418e-06
142,41.3603196592418,1.969001689706707e-06
143,41.4963766990018,2.0568769226791414e-06
144,41.63242013305782,1.8910480597866026e-06
145,41.76847717281782,1.98461659321725e-06
146,41.90453421257782,1.7537755154108422e-06
147,42.04059125233782,1.8542059795145962e-06
148,42.17663468639385,1.8023151413097371e-06
149,42.31269172615385,1.9192623400567865e-06
150,42.44874876591385,1.8459316541338916e-06
151,42.584805805673845,2.0317494817576915e-06
152,42.720849239729866,1.961772346683077e-06
153,42.85690627948987,2.0717846653935463e-06
154,42.99296331924987,2.1033761482118395e-06
155,43.12902035900987,2.02193519740238e-06
156,43.2650637930659,2.1287096994815723e-06
157,43.401120832825896,1.9677572347730723e-06
158,43.53717787258589,2.1160280227284114e-06
159,43.67323491234589,1.977585084653781e-06
160,43.80927834640192,2.0362146145658836e-06
161,43.945335386161915,1.9354041378799387e-06
162,44.08139242592192,1.9327984137222866e-06
163,44.217449465681916,1.812097852870237e-06
164,44.353492899737944,1.7988990093911945e-06
165,44.48954993949794,1.6621790876627588e-06
166,44.62560697925794,1.7522382676171956e-06
167,44.761664019017935,1.7303595663956805e-06
168,44.89770745307396,1.787287003064299e-06
169,45.03376449283397,1.7281559794147517e-06
170,45.169821532593964,1.5850028653839994e-06
171,45.30587857235397,1.5275178593025397e-06
172,45.44192200640999,1.2955884243665542e-06
173,45.577979046169986,1.297984601911248e-06
174,45.71403608592998,1.1734073240030685e-06
175,45.85009312568999,1.1488262707330409e-06
176,45.986136559746015,1.1211637687994282e-06
177,46.12219359950601,1.1057928488795035e-06
178,46.258250639266016,1.0401011437193303e-06
179,46.394307679026014,9.962137533725352e-07
180,46.53035111308204,1.0250928638647723e-06
181,46.66640815284203,9.744534356917412e-07
182,46.802465192602035,9.404074400189048e-07
183,46.93852223236203,9.455686933153697e-07
184,47.07456566641806,9.16231886262307e-07
185,47.210622706178064,8.902708111460225e-07
186,47.34667974593806,7.64644733391344e-07
187,47.482736785698066,7.167468617335137e-07
188,47.618780219754086,7.185555225369909e-07
189,47.75483725951408,4.133870120945547e-07
190,47.89089429927408,5.104631106212315e-07
191,48.026951339034085,4.2967440499223525e-07
192,48.16299477309011,3.2824178548308094e-07
193,48.29905181285011,2.9254686944307174e-07
194,48.43506041766452,9.025249790188288e-07
195,48.43515728755569,9.025267840645073e-07
196,48.57116589237011,1.0181544682517952e-06
197,48.707222932130115,9.607465306801365e-07
198,48.84326636618613,1.002975389301581e-06
199,48.97932340594613,8.263867481459328e-07
200,49.11538044570613,7.288778586765312e-07
201,49.251437485466134,7.210690309782797e-07
202,49.38748091952216,6.013268604578459e-07
203,49.52353795928216,5.3032452325788e-07
204,49.65959499904216,5.465148443053432e-07
205,49.79565203880216,4.383826150044411e-07
206,49.93169547285818,3.9430440628174404e-07
207,50.06775251261818,3.3654916877163064e-07
208,50.20380955237818,2.995723252207317e-07
209,50.33986659213818,3.833714908973308e-07
210,50.47591002619421,2.5783675941533777e-07
211,50.61196706595421,2.4709542837023563e-07
212,50.74802410571421,1.0753315287366132e-07
213,50.884081145474205,1.2458740962793152e-07
214,51.02007355950089,1.7253277481310753e-07
215,51.02017559955957,1.7253311987835811e-07
216,51.15618161929023,3.33870803251524e-07
217,51.29223865905023,2.1537066606016275e-07
218,51.42829569881023,2.748788416605757e-07
219,51.56433913286626,2.2067180317286275e-07
220,51.700396172626256,1.0968313253920178e-07
221,51.83645321238625,1.3590480633396107e-07
222,51.97251025214625,8.535731956870776e-08
223,52.10855368620228,5.3224563860385996e-08
224,52.24455848141958,3.956153061990913e-08
225,52.244662970504976,3.9561609742946466e-08
226,52.38066776572228,9.98148804343005e-08
227,52.516724805482276,1.3718743668969477e-07
228,52.652768239538304,7.474463873464029e-08
229,52.7888252792983,3.29345328109162e-08
230,52.92482939423041,1.9376542758798163e-07
231,52.924935243886196,1.937658151188258e-07
232,53.060939358818295,2.187970818075823e-07
233,53.19698279287432,2.003687542502519e-07
234,53.33303983263433,1.9827027550906945e-07
235,53.469096872394324,2.3667859231293378e-07
236,53.60515391215433,1.8566009281428305e-07
237,53.74119734621035,2.273003074960691e-07
238,53.877254385970346,2.0633619319685913e-07
239,54.01331142573034,2.0380486644732277e-07
240,54.14936846549035,2.818270209190548e-07
241,54.285411899546375,1.5633177109851093e-07
242,54.55752597906638,3.393529006847055e-08
243,61.36021469861866,1.5420627772133023e-09
244,68.16288981246697,4.405164363852206e-10
245,74.96557853201926,6.234698899200829e-10
246,81.76825364586757,2.1858821573851774e-10
247,88.57094236541987,5.78367595962892e-10
248,95.37363108497215,4.796360703146472e-10
249,102.17630619882047,2.49689807002156e-10
250,108.97899491837275,2.3832800562096903e-10
251,115.78168363792504,2.4669281361780506e-10
252,122.58435875177334,2.4489614539614366e-10
253,129.38704747132562,2.5841301310742475e-10
254,136.05367915111793,2.7667152311677543e-10
255,136.1897361908779,2.771224621591589e-10
256,204.0805119238249,5.016921781549745e-10
257,272.10735830223587,8.744574145776264e-10
258,340.1341910749428,1.6419634587374328e-09
259,408.1610238476498,2.470946679039573e-09
260,476.18787022606074,3.317567480994908e-09
261,544.2147029987677,4.13406831217139e-09
262,612.2415493771787,4.95147749983025e-09
263,680.2683821498856,5.91465950188772e-09
264,748.2952149225927,6.8146276382346674e-09
265,816.3220613010035,7.649452922952747e-09
266,884.3488940737104,8.425618055119065e-09
267,952.3757404521215,9.151407382464616e-09
268,1020.4025732248285,9.8347752508115e-09
269,1088.4294196032395,1.0482614615334023e-08
270,1156.4562523759464,1.1100633137909979e-08
271,1224.4830851486533,1.1693462766404527e-08
272,1292.5099315270643,1.2264833678443411e-08
273,1360.5367642997712,1.281774742638676e-08
274,1496.590443450889,1.3877443246617446e-08
275,1632.644122602007,1.4887031035492367e-08
276,1768.697801753125,1.5856321801756306e-08
277,1904.7514672985392,1.679217724699811e-08
278,2040.805146449657,1.7699551507205233e-08
279,2176.8588256007747,1.8582129786070535e-08
280,2312.912504751893,1.9442730298575422e-08
281,2448.966183903011,2.028356255217004e-08
282,2585.0198630541286,2.110639784650064e-08
283,2721.0735285995424,2.191268450228967e-08
284,2857.1272077506605,2.270362806660601e-08
285,2993.180886901778,2.3480247071522974e-08
286,3129.2345660528963,2.4243414167661682e-08
287,3265.288245204014,2.4993885971128735e-08
288,3401.3419107494283,2.5732325303384153e-08
289,3537.3955899005464,2.6459318669822433e-08
290,3673.4492690516645,2.717538879274662e-08
291,3809.502948202782,2.788100527147466e-08
292,3945.5566273539002,2.857659270423401e-08
293,4081.610306505018,2.9262537195178235e-08
294,4217.663972050432,2.993919159102759e-08
295,4353.717651201549,3.060688024133321e-08
296,4489.771330352668,3.1265902002359766e-08
297,4625.825009503786,3.191653367101951e-08
298,4761.878688654903,3.255903239632589e-08
299,4897.932354200318,3.319363776126619e-08
300,5033.986033351435,3.382057399727418e-08
301,5170.039712502553,3.444005098932497e-08
302,5306.0933916536715,3.5052266018576274e-08
303,5442.147070804789,3.565740489837861e-08
304,5578.200749955907,3.6255642969584065e-08
305,5714.254415501321,3.684714594117156e-08
306,5850.308094652439,3.743207106095932e-08
307,5986.361773803556,3.8010567311410174e-08
308,6122.415452954675,3.858277636685533e-08
309,6258.469132105793,3.914883309129645e-08
310,6394.522797651206,3.970886599504213e-08
311,6530.576476802325,4.026299798817934e-08
312,6666.630155953442,4.081134629264279e-08
313,6802.68383510456,4.135402319137355e-08
314,6938.737514255678,4.1891136241512127e-08
315,7074.791179801093,4.242278853162624e-08
316,7210.8448589522095,4.294907927677278e-08
317,7346.898538103329,4.347010360062156e-08
318,7482.952217254446,4.398595305170509e-08
319,7619.005896405564,4.449671582155902e-08
320,7755.059575556682,4.500247687423071e-08
321,7891.113241102096,4.5503318061069047e-08
322,8027.166920253213,4.599931865117162e-08
323,8163.220599404332,4.649055494525193e-08
324,8299.27427855545,4.697710081292433e-08
325,8435.327957706568,4.745902768072886e-08
326,8571.38162325198,4.793640462585338e-08
327,8707.435302403099,4.8409298786722225e-08
328,8843.488981554217,4.8877774968250195e-08
329,8979.542660705336,4.934189616170947e-08
330,9115.596339856453,4.9801723422008046e-08
331,9251.650019007571,5.025731606729455e-08
332,9387.703684552984,5.070873162575618e-08
333,9523.757363704102,5.115602624419432e-08
334,9659.81104285522,5.159925429558271e-08
335,9795.86472200634,5.203846874125219e-08
336,9931.918401157456,5.2473721131858616e-08
337,10067.97206670287,5.290506162062364e-08
338,10204.025745853987,5.3332539247950936e-08
339,10340.079425005106,5.375620160507885e-08
340,10476.133104156224,5.417609517993814e-08
341,10612.186783307343,5.4592265320498816e-08
342,10748.24046245846,5.5004756246223435e-08
343,10884.294128003874,5.541361109378059e-08
344,11020.34780715499,5.581887217503396e-08
345,11156.40148630611,5.6220580620291964e-08
346,11292.455165457228,5.661877668328937e-08
347,11428.508844608346,5.701349972988122e-08
348,11564.562510153759,5.7404788209604016e-08
349,11700.616189304877,5.779267987905103e-08
350,11836.669868455994,5.817721152674879e-08
351,11972.723547607113,5.855841922541854e-08
352,12108.777226758231,5.893633827856214e-08
353,12244.83090590935,5.9311003283968575e-08
354,12380.884571454762,5.968244804582562e-08
355,12516.938250605881,6.005070590557016e-08
356,12652.991929756998,6.041580935738849e-08
357,12789.045608908116,6.077779028898298e-08
358,12925.099288059235,6.11366800144843e-08
359,13061.15295360465,6.14925091526883e-08
360,13197.206632755768,6.184530799064672e-08
361,13333.260311906884,6.219510600488339e-08
362,13469.313991058003,6.254193223414402e-08
363,13605.36767020912,6.288581517188152e-08
364,16326.441198808663,6.918521521404008e-08
365,19047.514727408205,7.450353665972176e-08
366,21768.58826961345,7.898360089799597e-08
367,24489.661798212994,8.273732836842993e-08
368,27210.735326812537,8.585556851860826e-08
369,29931.808869017783,8.841397028504358e-08
370,32652.882397617326,9.047673358758908e-08
371,35373.95592621687,9.209913841488973e-08
372,38095.029468422115,9.332932415236425e-08
373,40816.10299702166,9.420958717068276e-08
374,43537.1765392269,9.4777356165884e-08
375,46258.25006782645,9.506594334178182e-08
376,48979.32359642599,9.510513681199982e-08
377,51700.39713863123,9.492167562313259e-08
378,54421.47066723078,9.453963759291957e-08
379,57142.54419583032,9.398076046474982e-08
380,59863.617738035566,9.326471104794301e-08
381,62584.691266635105,9.240931317573477e-08
382,65305.76479523465,9.143076968278283e-08
383,68026.8383374399,9.034404604592389e-08
384,70747.91186603945,8.91630863345705e-08
385,73468.98539463898,8.790114704035392e-08
386,76190.05893684423,8.657130470137755e-08
387,78911.13246544376,8.518711330708373e-08
388,81632.20599404332,8.376353051737542e-08
389,84353.27953624855,8.231817100275226e-08
390,87074.35306484811,8.087275016124566e-08
391,89795.42659344764,7.945529774332191e-08
392,92516.5001356529,7.80997433008813e-08
393,95237.57366425243,7.680936482393029e-08
394,97958.64719285197,7.55765672330469e-08
395,100679.72073505721,7.439728461395055e-08
396,103400.79426365678,7.32678382016127e-08
397,106121.86779225631,7.218489042758651e-08
398,108842.94133446156,7.114540559791049e-08
399,111564.0148630611,7.014661570475627e-08
400,114285.08839166064,6.918599113084098e-08
401,117006.16193386588,6.82612149255923e-08
402,119727.23546246543,6.737016052382258e-08
403,122448.30900467066,6.651087218759994e-08
404,125169.38253327021,6.568154784350843e-08
405,127890.45606186974,6.488052400834006e-08
406,130611.529604075,6.4106262415678e-08
407,133332.60313267456,6.335733823499887e-08
408,136053.6766612741,6.263242961149279e-08
409,138774.75020347934,6.193030832592725e-08
410,141495.8237320789,6.124983149033896e-08
411,144216.89726067844,6.058993407548145e-08
412,146937.97080288368,5.994962233473565e-08
413,149659.04433148322,5.932796775278651e-08
414,156461.72816658777,5.784989027740513e-08
415,163264.4120016923,5.647098699581093e-08
416,170067.0958367969,5.518086725637497e-08
417,176869.77965829574,5.397058998242496e-08
418,183672.4634934003,5.283241478191778e-08
419,190475.14732850486,5.175960333171142e-08
420,197277.83116360943,5.074625934458609e-08
421,204080.51499871397,4.978719857281268e-08
422,210883.19883381855,4.887784249721706e-08
423,217685.88266892312,4.8014130738385564e-08
424,224488.56649042197,4.719244835386296e-08
425,231291.25032552652,4.640956527951362e-08
426,238093.93416063106,4.566258544606182e-08
427,244896.61799573564,4.494890387821514e-08
428,251699.30183084018,4.4266170281723796e-08
429,258501.98566594475,4.361225811682392e-08
430,265304.6695010493,4.298523805016713e-08
431,272107.3533225482,4.238335514236506e-08
432,278910.0371576527,4.180500924970301e-08
433,285712.7209927573,4.1248737927605983e-08
434,292515.4048278619,4.071320170357738e-08
435,299318.08866296645,4.019717111016518e-08
436,306120.77249807096,3.969951542132652e-08
437,312923.45633317553,3.9219192750944276e-08
438,319726.1401682801,3.875524129384688e-08
439,326528.82398977893,3.830677162261348e-08
440,333331.50782488356,3.7872959912309324e-08
441,340134.1916599881,3.74530418339752e-08
442,346936.87549509265,3.704630717696465e-08
443,353739.5593301972,3.6652095069724705e-08
444,360542.24316530174,3.6269789674800195e-08
445,367344.9270004063,3.5898816312919895e-08
446,374147.6108219052,3.5538638053981034e-08
447,380950.2946570097,3.518875256528732e-08
448,387752.9784921143,3.4848689340190124e-08
