,E (eV),I (erg/s/cm**2)
0,1.360543186192048,0.00016371109064196096
1,2.0408011735840956,0.0002072769065302713
2,2.7210727666801198,0.0002322925055137818
3,3.401344359776144,0.00015503292011207856
4,4.081615952872168,0.00017759855848575
5,4.761873940264215,0.00020345132504619862
6,5.4421455333602395,0.00023645491810704643
7,6.122417126456264,0.0002636005557293427
8,6.802688719552288,0.00028775185466661996
9,7.482946706944335,0.0003152009540488971
10,8.16321830004036,0.00034142149245486113
11,8.843489893136384,0.0007477189889189833
12,9.523761486232408,0.0010957547293902479
13,10.204019473624456,0.0003351424089546749
14,10.884291066720479,0.0003315034410885623
15,11.564562659816504,0.0002967027311436486
16,12.244834252912527,0.00020741411815031728
17,12.92510584600855,0.00011372952715595418
18,13.7414208731606,4.652391426613274e-06
19,14.421692466256623,4.036520333040209e-06
20,15.101964059352648,3.723025591432348e-06
21,15.782222046744696,2.921607211132795e-06
22,16.46249363984072,3.3432235241843896e-06
23,17.142765232936743,3.3525654543033324e-06
24,17.823036826032766,3.277053800206238e-06
25,18.503294813424816,3.2660245448646206e-06
26,19.18356640652084,3.2194485388277796e-06
27,19.863837999616862,3.1108724397360926e-06
28,20.544109592712886,3.5089344231688853e-06
29,21.224367580104932,3.52283294472091e-06
30,21.90463917320096,3.2568007030872524e-06
31,22.584910766296982,3.2594317727721626e-06
32,23.26518235939301,3.972065673463826e-06
33,23.945440346785055,4.062438284713249e-06
34,24.62571193988108,3.851157182318883e-06
35,25.305983532977105,3.5852816028110397e-06
36,25.986255126073125,3.787922396943893e-06
37,26.66652671916915,3.434411352953727e-06
38,27.210741272505174,3.4406408195248628e-06
39,27.3467847065612,3.5222270349709585e-06
40,27.4828417463212,3.3359441875462566e-06
41,27.618898786081196,3.122170922526097e-06
42,27.7549558258412,3.518755335986843e-06
43,27.89099925989722,3.189324299498988e-06
44,28.02705629965722,3.246499986034438e-06
45,28.16311333941722,3.30088126982916e-06
46,28.299170379177223,3.5773508672326063e-06
47,28.435213813233247,3.331987520279641e-06
48,28.571270852993244,3.5853500290843496e-06
49,28.70732789275325,3.534831332780058e-06
50,28.843384932513246,3.5227076397002905e-06
51,28.97942836656927,3.5995214620009624e-06
52,29.115485406329267,3.4588627676866385e-06
53,29.25154244608927,3.5672303207563375e-06
54,29.387599485849268,3.3743834136032646e-06
55,29.523642919905292,3.1097769868290233e-06
56,29.659699959665296,3.3753883885719926e-06
57,29.795756999425294,3.2623261755955563e-06
58,29.931814039185298,3.352854138966399e-06
59,30.067857473241315,3.463997427905312e-06
60,30.20391451300132,3.12068027732236e-06
61,30.339971552761316,3.1560670590074363e-06
62,30.47602859252132,3.4661782245285576e-06
63,30.612072026577344,3.071588977398069e-06
64,30.74812906633734,2.9896249480483914e-06
65,30.884186106097346,3.146653738352578e-06
66,31.020243145857343,2.9391759338219794e-06
67,31.156286579913367,2.8958893791453727e-06
68,31.292343619673364,2.8657433229113763e-06
69,31.42840065943337,2.578336516320975e-06
70,31.564457699193365,2.855167199495271e-06
71,31.70050113324939,2.9002669310868696e-06
72,31.836558173009394,2.3847330578982905e-06
73,31.97261521276939,2.72904916307818e-06
74,32.108672252529395,2.6344945098056747e-06
75,32.244715686585415,2.354884197601929e-06
76,32.38077272634541,2.5935944511374408e-06
77,32.51682976610541,2.4141925716921373e-06
78,32.652886805865414,2.52657312304723e-06
79,32.78893023992144,2.644791376488823e-06
80,32.92498727968144,2.5679239474687584e-06
81,33.06104431944144,2.8022808218524146e-06
82,33.19710135920144,2.772977131411789e-06
83,33.33314479325746,2.72277547206875e-06
84,33.46920183301746,2.9293003408711946e-06
85,33.60525887277746,2.5937090840987524e-06
86,33.74131591253746,2.737915503701971e-06
87,33.87735934659349,2.476279937423684e-06
88,34.01341638635349,2.3817740356512393e-06
89,34.14947342611349,2.5840733873840508e-06
90,34.285530465873485,2.3891953470148075e-06
91,34.421573899929506,2.7165041644332527e-06
92,34.55763093968951,2.4291298454078306e-06
93,34.69368797944951,2.472249329215507e-06
94,34.82974501920951,2.5019795457717374e-06
95,34.96578845326554,2.6250212493436842e-06
96,35.101845493025536,2.678550077765274e-06
97,35.23790253278553,2.858525067114063e-06
98,35.37395957254554,2.816974511766348e-06
99,35.51000300660156,2.821852871850302e-06
100,35.646060046361555,3.0781959621911635e-06
101,35.78211708612156,2.8819094758791135e-06
102,35.918174125881556,3.134034518678798e-06
103,36.054217559937584,2.861716683249722e-06
104,36.19027459969758,3.1725959071179074e-06
105,36.326331639457585,3.339297746712067e-06
106,36.46238867921758,2.982393114007297e-06
107,36.59844571897758,3.3572942664321945e-06
108,36.73448915303361,3.209770712666349e-06
109,36.870546192793604,3.4247616511216133e-06
110,37.00660323255361,3.4751602000803866e-06
111,37.142660272313606,3.634585214601872e-06
112,37.27870370636963,3.8677787341430094e-06
113,37.41476074612963,3.805470199398078e-06
114,37.55081778588963,4.2649548196958845e-06
115,37.686874825649625,4.152535904339137e-06
116,37.82291825970565,4.349080009360291e-06
117,37.958975299465656,4.496882681581885e-06
118,38.095032339225654,4.6121418257551196e-06
119,38.23108937898566,4.722179508191629e-06
120,38.36713281304168,4.73047694919265e-06
121,38.503189852801675,4.8301785079183345e-06
122,38.63924689256167,5.228614292607127e-06
123,38.77530393232168,5.169690397652565e-06
124,38.911347366377704,5.7279187090848564e-06
125,39.0474044061377,6.241144246403057e-06
126,39.183461445897706,6.365643599334493e-06
127,39.3195184856577,6.980843178121107e-06
128,39.45556191971372,7.156689478684054e-06
129,39.59161895947372,7.705232512303227e-06
130,39.727675999233725,8.011762282622502e-06
131,39.86373303899372,8.86649964661865e-06
132,39.99977647304975,9.027468860337989e-06
133,40.135833512809754,9.960409725068578e-06
134,40.27189055256975,9.974999370264858e-06
135,40.407947592329755,1.1253649933578995e-05
136,40.54399102638577,1.125862884770279e-05
137,40.68004806614577,1.2755653918546923e-05
138,40.81610510590577,1.2438988294824489e-05
139,40.952162145665774,2.0473190062205187e-06
140,41.0882055797218,1.9624785537920705e-06
141,41.2242626194818,2.151410069436588e-06
142,41.3603196592418,1.9897533883285885e-06
143,41.4963766990018,2.112400576293203e-06
144,41.63242013305782,1.9135406076086885e-06
145,41.76847717281782,2.0412676298314264e-06
146,41.90453421257782,1.7753826208193731e-06
147,42.04059125233782,1.904358919034359e-06
148,42.17663468639385,1.8259682920645383e-06
149,42.31269172615385,1.967142588894534e-06
150,42.44874876591385,1.8712515615867665e-06
151,42.584805805673845,2.0784250045321797e-06
152,42.720849239729866,1.9917611868560396e-06
153,42.85690627948987,2.1144001228318413e-06
154,42.99296331924987,2.1378745480152876e-06
155,43.12902035900987,2.0603705072371875e-06
156,43.2650637930659,2.155458075767435e-06
157,43.401120832825896,2.0027418487967726e-06
158,43.53717787258589,2.1399175518969934e-06
159,43.67323491234589,2.0085482626162036e-06
160,43.80927834640192,2.058208421670555e-06
161,43.945335386161915,1.9631494050070688e-06
162,44.08139242592192,1.962718648626073e-06
163,44.217449465681916,1.8362920651300325e-06
164,44.353492899737944,1.8292414531535384e-06
165,44.48954993949794,1.6832242526526303e-06
166,44.62560697925794,1.7847221122661625e-06
167,44.761664019017935,1.7501866378787695e-06
168,44.89770745307396,1.8161368803360142e-06
169,45.03376449283397,1.7492457553378268e-06
170,45.169821532593964,1.6094287114773343e-06
171,45.30587857235397,1.544729371806659e-06
172,45.44192200640999,1.3123664317263577e-06
173,45.577979046169986,1.3110241353559698e-06
174,45.71403608592998,1.1934593364304032e-06
175,45.85009312568999,1.1622832495070792e-06
176,45.986136559746015,1.147338415463446e-06
177,46.12219359950601,1.1291263298668e-06
178,46.258250639266016,1.0095450198760423e-06
179,46.394307679026014,1.0096724240174126e-06
180,46.53035111308204,1.040166175704094e-06
181,46.66640815284203,9.882229560406218e-07
182,46.802465192602035,9.509296551741163e-07
183,46.93852223236203,9.58006884365083e-07
184,47.07456566641806,9.236359419473668e-07
185,47.210622706178064,9.035947278805014e-07
186,47.34667974593806,7.663132813722647e-07
187,47.482736785698066,7.285104165392401e-07
188,47.618780219754086,7.296035481491285e-07
189,47.75483725951408,4.201352969916825e-07
190,47.89089429927408,5.183504830831763e-07
191,48.026951339034085,4.3134496496200926e-07
192,48.16299477309011,3.319599398524346e-07
193,48.29905181285011,2.958949955054979e-07
194,48.43506041766452,9.181745120051355e-07
195,48.43515728755569,9.181763483498057e-07
196,48.57116589237011,1.02495089199669e-06
197,48.707222932130115,9.732956403804535e-07
198,48.84326636618613,1.0147016901620922e-06
199,48.97932340594613,8.3640253469494e-07
200,49.11538044570613,7.391323863409978e-07
201,49.251437485466134,7.335811817846552e-07
202,49.38748091952216,6.135614162397958e-07
203,49.52353795928216,5.3697282554775e-07
204,49.65959499904216,5.569546923694347e-07
205,49.79565203880216,4.4246186241921634e-07
206,49.93169547285818,4.0157363893212633e-07
207,50.06775251261818,3.420442452878072e-07
208,50.20380955237818,3.043292505081635e-07
209,50.33986659213818,3.896013227461412e-07
210,50.47591002619421,2.609014963805561e-07
211,50.61196706595421,2.511533655172721e-07
212,50.74802410571421,1.0895067812690952e-07
213,50.884081145474205,1.261802561040596e-07
214,51.02007355950089,1.7462025112506854e-07
215,51.02017559955957,1.7462060036526813e-07
216,51.15618161929023,3.379132085712938e-07
217,51.29223865905023,2.1602393556056006e-07
218,51.42829569881023,2.790020525205975e-07
219,51.56433913286626,2.229045451955565e-07
220,51.700396172626256,1.1085326400426371e-07
221,51.83645321238625,1.376670255258651e-07
222,51.97251025214625,8.653746913233246e-08
223,52.10855368620228,5.4071781884121174e-08
224,52.24455848141958,4.0266580723803223e-08
225,52.244662970504976,4.026666125694034e-08
226,52.38066776572228,1.0055327245937517e-07
227,52.516724805482276,1.3907667417919956e-07
228,52.652768239538304,7.582116235033398e-08
229,52.7888252792983,3.357866196565507e-08
230,52.92482939423041,1.966413015235582e-07
231,52.924935243886196,1.9664169480615008e-07
232,53.060939358818295,2.273885935271723e-07
233,53.19698279287432,1.990334623872078e-07
234,53.33303983263433,2.0271621212963948e-07
235,53.469096872394324,2.3653045078102442e-07
236,53.60515391215433,1.8705187475120474e-07
237,53.74119734621035,2.3255121593945146e-07
238,53.877254385970346,2.0683535295418486e-07
239,54.01331142573034,2.0416268484063694e-07
240,54.14936846549035,2.848627940526874e-07
241,54.285411899546375,1.5809340086172752e-07
242,54.55752597906638,3.4145632628463575e-08
243,61.36021469861866,1.581445901524456e-09
244,68.16288981246697,4.615734663827746e-10
245,74.96557853201926,6.494095204224853e-10
246,81.76825364586757,2.364460687706479e-10
247,88.57094236541987,6.043812265059378e-10
248,95.37363108497215,5.046435036902006e-10
249,102.17630619882047,2.7107975325777943e-10
250,108.97899491837275,2.6064485412818633e-10
251,115.78168363792504,2.7035705927113515e-10
252,122.58435875177334,2.69872551499813e-10
253,129.38704747132562,2.8500919774889293e-10
254,136.05367915111793,3.0505245963106617e-10
255,136.1897361908779,3.055411804964698e-10
256,204.0805119238249,5.524275916851315e-10
257,272.10735830223587,9.629764584603303e-10
258,340.1341910749428,1.8067399084127503e-09
259,408.1610238476498,2.7122371051020873e-09
260,476.18787022606074,3.6371168692276832e-09
261,544.2147029987677,4.528181960454404e-09
262,612.2415493771787,5.421456683664404e-09
263,680.2683821498856,6.4749475487020336e-09
264,748.2952149225927,7.459951112336065e-09
265,816.3220613010035,8.374086879425096e-09
266,884.3488940737104,9.224242926534875e-09
267,952.3757404521215,1.0019357141154004e-08
268,1020.4025732248285,1.0768062867823626e-08
269,1088.4294196032395,1.1477866816785343e-08
270,1156.4562523759464,1.215499850320075e-08
271,1224.4830851486533,1.2804521059096919e-08
272,1292.5099315270643,1.3430516334328107e-08
273,1360.5367642997712,1.4036271502959824e-08
274,1496.590443450889,1.519718753732531e-08
275,1632.644122602007,1.630314580265284e-08
276,1768.697801753125,1.7364908792947505e-08
277,1904.7514672985392,1.8390005728484747e-08
278,2040.805146449657,1.9383873308283583e-08
279,2176.8588256007747,2.0350555752886196e-08
280,2312.912504751893,2.129314566393444e-08
281,2448.966183903011,2.2214067434868556e-08
282,2585.0198630541286,2.311526442867579e-08
283,2721.0735285995424,2.3998325453604277e-08
284,2857.1272077506605,2.4864572829924335e-08
285,2993.180886901778,2.571512359833705e-08
286,3129.2345660528963,2.6550934712799017e-08
287,3265.288245204014,2.737283577997173e-08
288,3401.3419107494283,2.818155348986919e-08
289,3537.3955899005464,2.8977730827435804e-08
290,3673.4492690516645,2.9761940757308993e-08
291,3809.502948202782,3.053469802977626e-08
292,3945.5566273539002,3.1296467997601376e-08
293,4081.610306505018,3.204767381195501e-08
294,4217.663972050432,3.278870216605183e-08
295,4353.717651201549,3.351990848214783e-08
296,4489.771330352668,3.4241620252310966e-08
297,4625.825009503786,3.495414078611287e-08
298,4761.878688654903,3.565775183775808e-08
299,4897.932354200318,3.6352715921756744e-08
300,5033.986033351435,3.7039278710560767e-08
301,5170.039712502553,3.7717670165781674e-08
302,5306.0933916536715,3.8388106436815626e-08
303,5442.147070804789,3.905079110321373e-08
304,5578.200749955907,3.970591623559603e-08
305,5714.254415501321,4.0353663414614866e-08
306,5850.308094652439,4.0994204894743655e-08
307,5986.361773803556,4.1627703890140686e-08
308,6122.415452954675,4.225431561392819e-08
309,6258.469132105793,4.287418781344416e-08
310,6394.522797651206,4.3487461269582935e-08
311,6530.576476802325,4.4094270621234766e-08
312,6666.630155953442,4.4694744299154906e-08
313,6802.68383510456,4.5289005295636754e-08
314,6938.737514255678,4.5877171459309875e-08
315,7074.791179801093,4.6459355693284764e-08
316,7210.8448589522095,4.7035666711792614e-08
317,7346.898538103329,4.760620869527854e-08
318,7482.952217254446,4.817108195231805e-08
319,7619.005896405564,4.873038308257942e-08
320,7755.059575556682,4.9284205162113446e-08
321,7891.113241102096,4.983263786971713e-08
322,8027.166920253213,5.0375768033680286e-08
323,8163.220599404332,5.09136792311179e-08
324,8299.27427855545,5.1446452400081396e-08
325,8435.327957706568,5.197416576783531e-08
326,8571.38162325198,5.2496895024213654e-08
327,8707.435302403099,5.301471368763063e-08
328,8843.488981554217,5.3527692793663495e-08
329,8979.542660705336,5.403590130617382e-08
330,9115.596339856453,5.453940612951946e-08
331,9251.650019007571,5.503827225402474e-08
332,9387.703684552984,5.553256268435351e-08
333,9523.757363704102,5.602233892452253e-08
334,9659.81104285522,5.650766054870663e-08
335,9795.86472200634,5.698858557219791e-08
336,9931.918401157456,5.746517047837865e-08
337,10067.97206670287,5.7937470193753985e-08
338,10204.025745853987,5.840553843890616e-08
339,10340.079425005106,5.886942736070912e-08
340,10476.133104156224,5.932918788429457e-08
341,10612.186783307343,5.978486967238995e-08
342,10748.24046245846,6.023652119282937e-08
343,10884.294128003874,6.068418968633563e-08
344,11020.34780715499,6.112792148973209e-08
345,11156.40148630611,6.156776168780631e-08
346,11292.455165457228,6.200375437743278e-08
347,11428.508844608346,6.243594268294253e-08
348,11564.562510153759,6.286436869603136e-08
349,11700.616189304877,6.328907380684755e-08
350,11836.669868455994,6.371009831664263e-08
351,11972.723547607113,6.412748172782031e-08
352,12108.777226758231,6.454126274441343e-08
353,12244.83090590935,6.495147923837201e-08
354,12380.884571454762,6.535816825677876e-08
355,12516.938250605881,6.576136632500594e-08
356,12652.991929756998,6.616110902518622e-08
357,12789.045608908116,6.65574313207283e-08
358,12925.099288059235,6.695036748581483e-08
359,13061.15295360465,6.733995110980602e-08
360,13197.206632755768,6.772621531051253e-08
361,13333.260311906884,6.810919242633795e-08
362,13469.313991058003,6.848891425409354e-08
363,13605.36767020912,6.886541200879395e-08
364,16326.441198808663,7.576195024437283e-08
365,19047.514727408205,8.158384840906669e-08
366,21768.58826961345,8.648757800938136e-08
367,24489.661798212994,9.059575843279372e-08
368,27210.735326812537,9.400792476214223e-08
369,29931.808869017783,9.680695836315642e-08
370,32652.882397617326,9.906319661948027e-08
371,35373.95592621687,1.0083720360243567e-07
372,38095.029468422115,1.0218171936468131e-07
373,40816.10299702166,1.0314308156445734e-07
374,43537.1765392269,1.0376229412794752e-07
375,46258.25006782645,1.0407585027871119e-07
376,48979.32359642599,1.0411638164117869e-07
377,51700.39713863123,1.0391317870084047e-07
378,54421.47066723078,1.0349261591241405e-07
379,57142.54419583032,1.028785035544366e-07
380,59863.617738035566,1.0209238257101123e-07
381,62584.691266635105,1.011537745745457e-07
382,65305.76479523465,1.0008044380532093e-07
383,68026.8383374399,9.88888072755574e-08
384,70747.91186603945,9.759415162548428e-08
385,73468.98539463898,9.621103122715746e-08
386,76190.05893684423,9.475379959391939e-08
387,78911.13246544376,9.323737763149506e-08
388,81632.20599404332,9.167819270765482e-08
389,84353.27953624855,9.009556078731074e-08
390,87074.35306484811,8.851327928173769e-08
391,89795.42659344764,8.696192326741081e-08
392,92516.5001356529,8.547833972732311e-08
393,95237.57366425243,8.406606611670325e-08
394,97958.64719285197,8.271681271402267e-08
395,100679.72073505721,8.14261295704876e-08
396,103400.79426365678,8.018999032657085e-08
397,106121.86779225631,7.900474221929993e-08
398,108842.94133446156,7.786706272847315e-08
399,111564.0148630611,7.677392239904275e-08
400,114285.08839166064,7.572255263221524e-08
401,117006.16193386588,7.471041763845555e-08
402,119727.23546246543,7.373518994597832e-08
403,122448.30900467066,7.279472908223707e-08
404,125169.38253327021,7.188706273803842e-08
405,127890.45606186974,7.101037027028218e-08
406,130611.529604075,7.016296813078871e-08
407,133332.60313267456,6.934329690573007e-08
408,136053.6766612741,6.854990983676474e-08
409,138774.75020347934,6.778146271052984e-08
410,141495.8237320789,6.703670464280673e-08
411,144216.89726067844,6.63144700409161e-08
412,146937.97080288368,6.561367125118285e-08
413,149659.04433148322,6.493329204467627e-08
414,156461.72816658777,6.33155879171365e-08
415,163264.4120016923,6.180642638940572e-08
416,170067.0958367969,6.03944353352262e-08
417,176869.77965829574,5.906982898301365e-08
418,183672.4634934003,5.782413582332135e-08
419,190475.14732850486,5.6649980966812665e-08
420,197277.83116360943,5.554091114520764e-08
421,204080.51499871397,5.449125236775631e-08
422,210883.19883381855,5.349599363139009e-08
423,217685.88266892312,5.2550690981653295e-08
424,224488.56649042197,5.1651388004656056e-08
425,231291.25032552652,5.079454949875628e-08
426,238093.93416063106,4.997700583228634e-08
427,244896.61799573564,4.919590593142376e-08
428,251699.30183084018,4.844867750817641e-08
429,258501.98566594475,4.7732993120913625e-08
430,265304.6695010493,4.704674118667781e-08
431,272107.3533225482,4.638800099069987e-08
432,278910.0371576527,4.575502122619355e-08
433,285712.7209927573,4.5146201314660756e-08
434,292515.4048278619,4.456007523491269e-08
435,299318.08866296645,4.3995297393875465e-08
436,306120.77249807096,4.345063023691539e-08
437,312923.45633317553,4.292493346228669e-08
438,319726.1401682801,4.2417154394407086e-08
439,326528.82398977893,4.192631961203287e-08
440,333331.50782488356,4.1451527454352044e-08
441,340134.1916599881,4.0991941387007274e-08
442,346936.87549509265,4.054678411585134e-08
443,353739.5593301972,4.0115332346502166e-08
444,360542.24316530174,3.9696912045255594e-08
445,367344.9270004063,3.929089427082063e-08
446,374147.6108219052,3.889669136031797e-08
447,380950.2946570097,3.851375352595272e-08
448,387752.9784921143,3.814156581260352e-08
