,E (eV),I (erg/s/cm**2)
0,1.360543186192048,0.00025111105356280555
1,2.0408011735840956,0.00031396823904880145
2,2.7210727666801198,0.0003308495209297599
3,3.401344359776144,0.00023562627101912702
4,4.081615952872168,0.000268726213866241
5,4.761873940264215,0.0003086941381694003
6,5.4421455333602395,0.0003615310231821982
7,6.122417126456264,0.0004018172223865737
8,6.802688719552288,0.00043590903153937333
9,7.482946706944335,0.00046609416411520695
10,8.16321830004036,0.0007918976276933948
11,8.843489893136384,0.001075513667053181
12,9.523761486232408,0.0013078552365076628
13,10.204019473624456,0.0004905457242067388
14,10.884291066720479,0.0004595104290147305
15,11.564562659816504,0.0003690053059989436
16,12.244834252912527,0.000267181986172723
17,12.92510584600855,0.0001415206063706153
18,13.7414208731606,5.8373314018848325e-06
19,14.421692466256623,5.127549510143005e-06
20,15.101964059352648,4.745348333100155e-06
21,15.782222046744696,3.855264274729054e-06
22,16.46249363984072,4.333772619487856e-06
23,17.142765232936743,4.2861482737247794e-06
24,17.823036826032766,4.187563528415762e-06
25,18.503294813424816,4.210938774921577e-06
26,19.18356640652084,4.05070893764005e-06
27,19.863837999616862,4.087938931473531e-06
28,20.544109592712886,4.443536367746558e-06
29,21.224367580104932,4.4296200840243525e-06
30,21.90463917320096,4.056134389895847e-06
31,22.584910766296982,4.130651223159887e-06
32,23.26518235939301,4.94884501144361e-06
33,23.945440346785055,5.012968411433484e-06
34,24.62571193988108,4.794801343150444e-06
35,25.305983532977105,4.450081979375164e-06
36,25.986255126073125,4.700135136053524e-06
37,26.66652671916915,4.10554150884975e-06
38,27.210741272505174,4.037578295925171e-06
39,27.3467847065612,4.5228329118885365e-06
40,27.4828417463212,4.136333966341906e-06
41,27.618898786081196,3.7797928680177815e-06
42,27.7549558258412,4.282869981553346e-06
43,27.89099925989722,4.133484152177767e-06
44,28.02705629965722,3.852243024573634e-06
45,28.16311333941722,4.1027581746179605e-06
46,28.299170379177223,4.444803860091217e-06
47,28.435213813233247,4.008068622514659e-06
48,28.571270852993244,4.431082644774456e-06
49,28.70732789275325,4.227135924884183e-06
50,28.843384932513246,4.3090021238579604e-06
51,28.97942836656927,4.427956580835906e-06
52,29.115485406329267,4.089996401288408e-06
53,29.25154244608927,4.297890951924827e-06
54,29.387599485849268,4.208376042470971e-06
55,29.523642919905292,3.6637748451863537e-06
56,29.659699959665296,4.051275422002518e-06
57,29.795756999425294,4.190589460927785e-06
58,29.931814039185298,3.865508370036322e-06
59,30.067857473241315,4.100036947389304e-06
60,30.20391451300132,4.0421289711876745e-06
61,30.339971552761316,3.605913600294145e-06
62,30.47602859252132,4.067513321595752e-06
63,30.612072026577344,3.900113154251633e-06
64,30.74812906633734,3.4921031680498077e-06
65,30.884186106097346,3.7543275383813617e-06
66,31.020243145857343,3.7033545527618336e-06
67,31.156286579913367,3.2663208158570095e-06
68,31.292343619673364,3.5018916894127495e-06
69,31.42840065943337,3.415907734573535e-06
70,31.564457699193365,3.1168716231876536e-06
71,31.70050113324939,3.5748071342242726e-06
72,31.836558173009394,3.164268261528765e-06
73,31.97261521276939,3.0567510216902287e-06
74,32.108672252529395,3.3840797436435284e-06
75,32.244715686585415,2.9581055861823296e-06
76,32.38077272634541,3.037729214807607e-06
77,32.51682976610541,3.2950413090211255e-06
78,32.652886805865414,2.9247956082076998e-06
79,32.78893023992144,3.287961529581892e-06
80,32.92498727968144,3.2217131427157124e-06
81,33.06104431944144,3.227492129671234e-06
82,33.19710135920144,3.5814913821632476e-06
83,33.33314479325746,3.13984686888085e-06
84,33.46920183301746,3.625535669362713e-06
85,33.60525887277746,3.220131803393972e-06
86,33.74131591253746,3.2742845798118317e-06
87,33.87735934659349,3.2560550280966557e-06
88,34.01341638635349,2.8508044128962466e-06
89,34.14947342611349,3.34942829205075e-06
90,34.285530465873485,2.970722281348541e-06
91,34.421573899929506,3.42631993876736e-06
92,34.55763093968951,3.106814875294799e-06
93,34.69368797944951,3.105451274566348e-06
94,34.82974501920951,3.261932783076882e-06
95,34.96578845326554,3.253563031261799e-06
96,35.101845493025536,3.492000932350193e-06
97,35.23790253278553,3.4594538326686075e-06
98,35.37395957254554,3.63210940058159e-06
99,35.51000300660156,3.5142523295745113e-06
100,35.646060046361555,3.7261466588374008e-06
101,35.78211708612156,3.826112500585789e-06
102,35.918174125881556,3.6721153690774863e-06
103,36.054217559937584,3.8046405652831488e-06
104,36.19027459969758,3.980512067875921e-06
105,36.326331639457585,4.106944279172518e-06
106,36.46238867921758,3.990366763920229e-06
107,36.59844571897758,4.039434178148756e-06
108,36.73448915303361,4.25899418040466e-06
109,36.870546192793604,4.160152941032383e-06
110,37.00660323255361,4.458634116847332e-06
111,37.142660272313606,4.674817804842915e-06
112,37.27870370636963,4.752608111781702e-06
113,37.41476074612963,4.845401423205777e-06
114,37.55081778588963,5.122273870298776e-06
115,37.686874825649625,5.205521107514065e-06
116,37.82291825970565,5.310155769642397e-06
117,37.958975299465656,5.505365938611362e-06
118,38.095032339225654,5.426060907536731e-06
119,38.23108937898566,5.686865287604084e-06
120,38.36713281304168,5.939293394625185e-06
121,38.503189852801675,5.821018956325175e-06
122,38.63924689256167,6.4588561466420875e-06
123,38.77530393232168,6.201706472102604e-06
124,38.911347366377704,6.969164838531299e-06
125,39.0474044061377,6.82788378898382e-06
126,39.183461445897706,7.617815140033512e-06
127,39.3195184856577,7.515472748453611e-06
128,39.45556191971372,8.443704718076607e-06
129,39.59161895947372,8.165445744579736e-06
130,39.727675999233725,9.291541796531796e-06
131,39.86373303899372,9.20174697951734e-06
132,39.99977647304975,1.0343437463148652e-05
133,40.135833512809754,1.0107286316487107e-05
134,40.27189055256975,1.1272697810605609e-05
135,40.407947592329755,1.1172753645537677e-05
136,40.54399102638577,1.2500359945160833e-05
137,40.68004806614577,1.2460715026408702e-05
138,40.81610510590577,1.226527927490888e-05
139,40.952162145665774,2.3739555617859713e-06
140,41.0882055797218,2.4087693366346063e-06
141,41.2242626194818,2.493150923724179e-06
142,41.3603196592418,2.423388578018697e-06
143,41.4963766990018,2.4676583665996524e-06
144,41.63242013305782,2.3138357826733596e-06
145,41.76847717281782,2.432432313486476e-06
146,41.90453421257782,2.131125522084231e-06
147,42.04059125233782,2.320597053471175e-06
148,42.17663468639385,2.1190766612242576e-06
149,42.31269172615385,2.4592345861323286e-06
150,42.44874876591385,2.055816248110433e-06
151,42.584805805673845,2.593361306241819e-06
152,42.720849239729866,2.206991952599709e-06
153,42.85690627948987,2.562904359706604e-06
154,42.99296331924987,2.387013132316881e-06
155,43.12902035900987,2.4616403907630022e-06
156,43.2650637930659,2.417495497674106e-06
157,43.401120832825896,2.3768162757246e-06
158,43.53717787258589,2.381440175429234e-06
159,43.67323491234589,2.373888238263886e-06
160,43.80927834640192,2.2746872031919875e-06
161,43.945335386161915,2.3015779756451045e-06
162,44.08139242592192,2.184295573698883e-06
163,44.217449465681916,2.1246489317314347e-06
164,44.353492899737944,2.0829251581457655e-06
165,44.48954993949794,1.8881277990176934e-06
166,44.62560697925794,2.0545214706027124e-06
167,44.761664019017935,1.9180354128175937e-06
168,44.89770745307396,2.0592524683993526e-06
169,45.03376449283397,1.9384517508319293e-06
170,45.169821532593964,1.7892824181022332e-06
171,45.30587857235397,1.7448512097381095e-06
172,45.44192200640999,1.4789924972694506e-06
173,45.577979046169986,1.5124723357519019e-06
174,45.71403608592998,1.3241738371720405e-06
175,45.85009312568999,1.3256360946603311e-06
176,45.986136559746015,1.2919543849279278e-06
177,46.12219359950601,1.2303616188509566e-06
178,46.258250639266016,1.1901782452912227e-06
179,46.394307679026014,1.0961974630782425e-06
180,46.53035111308204,1.1808173867102095e-06
181,46.66640815284203,1.0362018913684395e-06
182,46.802465192602035,1.0635695561116486e-06
183,46.93852223236203,1.0489021496978735e-06
184,47.07456566641806,9.27921988946091e-07
185,47.210622706178064,1.039083165919147e-06
186,47.34667974593806,7.628715336337325e-07
187,47.482736785698066,8.46512938527883e-07
188,47.618780219754086,7.523882182439128e-07
189,47.75483725951408,4.875860778543083e-07
190,47.89089429927408,5.958445510588479e-07
191,48.026951339034085,4.384977371374462e-07
192,48.16299477309011,3.6510440774342415e-07
193,48.29905181285011,3.259968861230648e-07
194,48.43506041766452,1.0420536483145878e-06
195,48.43515728755569,1.0420557324169432e-06
196,48.57116589237011,1.1391302216295762e-06
197,48.707222932130115,1.0212818417320353e-06
198,48.84326636618613,1.1616551749678908e-06
199,48.97932340594613,8.708242505030961e-07
200,49.11538044570613,8.176299139335087e-07
201,49.251437485466134,8.660925972076228e-07
202,49.38748091952216,6.051765422463899e-07
203,49.52353795928216,6.198179293301652e-07
204,49.65959499904216,5.555497013302708e-07
205,49.79565203880216,4.945318257003033e-07
206,49.93169547285818,4.862795779161885e-07
207,50.06775251261818,3.779259038835888e-07
208,50.20380955237818,3.5400071755729106e-07
209,50.33986659213818,2.980960205239647e-07
210,50.47591002619421,2.9977651168025745e-07
211,50.61196706595421,2.926921028714601e-07
212,50.74802410571421,1.2307526173027266e-07
213,50.884081145474205,1.4173424693327288e-07
214,51.02007355950089,1.9422199020517448e-07
215,51.02017559955957,1.9422237864881826e-07
216,51.15618161929023,3.449425395261668e-07
217,51.29223865905023,2.1973853182349308e-07
218,51.42829569881023,3.212166364292045e-07
219,51.56433913286626,2.1350455440057096e-07
220,51.700396172626256,1.233040772153969e-07
221,51.83645321238625,1.5603947168649334e-07
222,51.97251025214625,9.865712098300102e-08
223,52.10855368620228,6.345948435322888e-08
224,52.24455848141958,4.847703462116627e-08
225,52.244662970504976,4.847713157520622e-08
226,52.38066776572228,1.0832397360254239e-07
227,52.516724805482276,1.5897559719724536e-07
228,52.652768239538304,8.73671638611737e-08
229,52.7888252792983,4.1438006518061086e-08
230,52.92482939423041,2.3556461318519336e-07
231,52.924935243886196,2.3556508431440634e-07
232,53.060939358818295,2.6086370171536935e-07
233,53.19698279287432,2.1698428104125722e-07
234,53.33303983263433,2.613455071664297e-07
235,53.469096872394324,2.311966890369992e-07
236,53.60515391215433,2.01051365193972e-07
237,53.74119734621035,2.904711070693384e-07
238,53.877254385970346,2.0975160251809e-07
239,54.01331142573034,2.1854523695049515e-07
240,54.14936846549035,3.133028531008459e-07
241,54.285411899546375,1.760376872627084e-07
242,54.55752597906638,3.736290379522197e-08
243,61.36021469861866,2.125005081727662e-09
244,68.16288981246697,7.878786013678044e-10
245,74.96557853201926,1.0374582926230305e-09
246,81.76825364586757,5.368345984307417e-10
247,88.57094236541987,1.0022601958813464e-09
248,95.37363108497215,8.982047795738062e-10
249,102.17630619882047,6.311490341731381e-10
250,108.97899491837275,6.390018188571765e-10
251,115.78168363792504,6.720130525869469e-10
252,122.58435875177334,6.953864338878677e-10
253,129.38704747132562,7.379673102216339e-10
254,136.05367915111793,7.877648449685372e-10
255,136.1897361908779,7.888764988687845e-10
256,204.0805119238249,1.4082362854912992e-09
257,272.10735830223587,2.4481243574993164e-09
258,340.1341910749428,4.54883100616623e-09
259,408.1610238476498,6.656342060871562e-09
260,476.18787022606074,8.840515436155337e-09
261,544.2147029987677,1.0904706037401285e-08
262,612.2415493771787,1.2986506490108964e-08
263,680.2683821498856,1.5438769120906415e-08
264,748.2952149225927,1.7734180735254985e-08
265,816.3220613010035,1.9868068894925747e-08
266,884.3488940737104,2.1855956522410012e-08
267,952.3757404521215,2.371789628699072e-08
268,1020.4025732248285,2.547333329356278e-08
269,1088.4294196032395,2.7139252009686424e-08
270,1156.4562523759464,2.8729804240388778e-08
271,1224.4830851486533,3.025653151774602e-08
272,1292.5099315270643,3.172876518165772e-08
273,1360.5367642997712,3.315403795058472e-08
274,1496.590443450889,3.5886961486898586e-08
275,1632.644122602007,3.849184130067933e-08
276,1768.697801753125,4.099351759232819e-08
277,1904.7514672985392,4.3409408857074006e-08
278,2040.805146449657,4.5752118124620586e-08
279,2176.8588256007747,4.803103724487194e-08
280,2312.912504751893,5.0253359832127006e-08
281,2448.966183903011,5.242473357213657e-08
282,2585.0198630541286,5.454969172854873e-08
283,2721.0735285995424,5.6631945063311345e-08
284,2857.1272077506605,5.867458546669753e-08
285,2993.180886901778,6.068022754425538e-08
286,3129.2345660528963,6.265111323842226e-08
287,3265.288245204014,6.45891877757781e-08
288,3401.3419107494283,6.649615638856805e-08
289,3537.3955899005464,6.837352886034433e-08
290,3673.4492690516645,7.022265144026148e-08
291,3809.502948202782,7.204473420219125e-08
292,3945.5566273539002,7.384087165162659e-08
293,4081.610306505018,7.561205950280504e-08
294,4217.663972050432,7.735920801186299e-08
295,4353.717651201549,7.908315410473544e-08
296,4489.771330352668,8.078466925158257e-08
297,4625.825009503786,8.24644680861401e-08
298,4761.878688654903,8.41232147026182e-08
299,4897.932354200318,8.576152795965576e-08
300,5033.986033351435,8.737998712842818e-08
301,5170.039712502553,8.897913456457655e-08
302,5306.0933916536715,9.055948016342276e-08
303,5442.147070804789,9.212150415277562e-08
304,5578.200749955907,9.366565984903881e-08
305,5714.254415501321,9.519237570117015e-08
306,5850.308094652439,9.670205832761326e-08
307,5986.361773803556,9.819509298881414e-08
308,6122.415452954675,9.967184611404226e-08
309,6258.469132105793,1.0113266659839338e-07
310,6394.522797651206,1.025778868276862e-07
311,6530.576476802325,1.0400782476722983e-07
312,6666.630155953442,1.0542278379163077e-07
313,6802.68383510456,1.0682305438540396e-07
314,6938.737514255678,1.0820891488798093e-07
315,7074.791179801093,1.095806320901964e-07
316,7210.8448589522095,1.109384627996885e-07
317,7346.898538103329,1.1228265315302836e-07
318,7482.952217254446,1.1361344023337823e-07
319,7619.005896405564,1.1493105222366337e-07
320,7755.059575556682,1.1623570913126017e-07
321,7891.113241102096,1.1752762290639358e-07
322,8027.166920253213,1.1880699870345107e-07
323,8163.220599404332,1.200740341549455e-07
324,8299.27427855545,1.2132892048924556e-07
325,8435.327957706568,1.2257184266377192e-07
326,8571.38162325198,1.2380297961049838e-07
327,8707.435302403099,1.2502250512695923e-07
328,8843.488981554217,1.2623058717136432e-07
329,8979.542660705336,1.2742738874593088e-07
330,9115.596339856453,1.2861306810103827e-07
331,9251.650019007571,1.2978777884502846e-07
332,9387.703684552984,1.3095167001147575e-07
333,9523.757363704102,1.321048870261081e-07
334,9659.81104285522,1.33247570753722e-07
335,9795.86472200634,1.3437985840421246e-07
336,9931.918401157456,1.355018835353549e-07
337,10067.97206670287,1.3661377605584977e-07
338,10204.025745853987,1.3771566308611367e-07
339,10340.079425005106,1.3880766793400295e-07
340,10476.133104156224,1.3988991101782595e-07
341,10612.186783307343,1.4096250983563075e-07
342,10748.24046245846,1.4202557906165766e-07
343,10884.294128003874,1.4307923040469405e-07
344,11020.34780715499,1.441235735006435e-07
345,11156.40148630611,1.4515871502745073e-07
346,11292.455165457228,1.4618475926069796e-07
347,11428.508844608346,1.4720180824323188e-07
348,11564.562510153759,1.4820996161187785e-07
349,11700.616189304877,1.4920931724190317e-07
350,11836.669868455994,1.5019997053799415e-07
351,11972.723547607113,1.511820149127895e-07
352,12108.777226758231,1.5215554195993114e-07
353,12244.83090590935,1.5312064130646304e-07
354,12380.884571454762,1.5407740062996805e-07
355,12516.938250605881,1.5502590637335948e-07
356,12652.991929756998,1.5596624271536293e-07
357,12789.045608908116,1.5689849237070153e-07
358,12925.099288059235,1.5782273653304344e-07
359,13061.15295360465,1.5873905463281198e-07
360,13197.206632755768,1.596475250931406e-07
361,13333.260311906884,1.60548224385595e-07
362,13469.313991058003,1.6144122781081189e-07
363,13605.36767020912,1.6232660925739942e-07
364,16326.441198808663,1.7853692065407461e-07
365,19047.514727408205,1.9220740917702612e-07
366,21768.58826961345,2.0370861677502024e-07
367,24489.661798212994,2.1333097880307778e-07
368,27210.735326812537,2.2131027706178776e-07
369,29931.808869017783,2.278428465682784e-07
370,32652.882397617326,2.3309529766768968e-07
371,35373.95592621687,2.3721107310581524e-07
372,38095.029468422115,2.403150634160314e-07
373,40816.10299702166,2.4251697434019825e-07
374,43537.1765392269,2.439138587192824e-07
375,46258.25006782645,2.4459206805555555e-07
376,48979.32359642599,2.446287912232183e-07
377,51700.39713863123,2.440932897371138e-07
378,54421.47066723078,2.4304790623813195e-07
379,57142.54419583032,2.415488998387804e-07
380,59863.617738035566,2.396471662897342e-07
381,62584.691266635105,2.373890256426134e-07
382,65305.76479523465,2.348168343428911e-07
383,68026.8383374399,2.3196965756391698e-07
384,70747.91186603945,2.288841020381104e-07
385,73468.98539463898,2.2559531984019334e-07
386,76190.05893684423,2.2213835033514566e-07
387,78911.13246544376,2.1854969647657366e-07
388,81632.20599404332,2.1486957007687864e-07
389,84353.27953624855,2.1114426413003333e-07
390,87074.35306484811,2.074295088322841e-07
391,89795.42659344764,2.0379383559671175e-07
392,92516.5001356529,2.0031803746919504e-07
393,95237.57366425243,1.9700875919008509e-07
394,97958.64719285197,1.9384715091860127e-07
395,100679.72073505721,1.9082278548466122e-07
396,103400.79426365678,1.8792622833365048e-07
397,106121.86779225631,1.851489201645477e-07
398,108842.94133446156,1.824830756476928e-07
399,111564.0148630611,1.7992159613302386e-07
400,114285.08839166064,1.7745799417944753e-07
401,117006.16193386588,1.7508632791691375e-07
402,119727.23546246543,1.7280114353437546e-07
403,122448.30900467066,1.7059742552661466e-07
404,125169.38253327021,1.68470552238965e-07
405,127890.45606186974,1.6641625760530047e-07
406,130611.529604075,1.644305966891912e-07
407,133332.60313267456,1.6250991539570836e-07
408,136053.6766612741,1.60650823723447e-07
409,138774.75020347934,1.5885017181051136e-07
410,141495.8237320789,1.571050286731821e-07
411,144216.89726067844,1.5541266296804805e-07
412,146937.97080288368,1.5377052616421442e-07
413,149659.04433148322,1.5217623702385688e-07
414,156461.72816658777,1.483855730272554e-07
415,163264.4120016923,1.4484924867044638e-07
416,170067.0958367969,1.4154061644510024e-07
417,176869.77965829574,1.3843674628480044e-07
418,183672.4634934003,1.3551778745706655e-07
419,190475.14732850486,1.327664590603126e-07
420,197277.83116360943,1.3016763960674544e-07
421,204080.51499871397,1.2770803378388927e-07
422,210883.19883381855,1.2537589959726477e-07
423,217685.88266892312,1.231608239481736e-07
424,224488.56649042197,1.2105353603205342e-07
425,231291.25032552652,1.1904575214381049e-07
426,238093.93416063106,1.1713004506930775e-07
427,244896.61799573564,1.1529973414575357e-07
428,251699.30183084018,1.135487919010351e-07
429,258501.98566594475,1.1187176465851084e-07
430,265304.6695010493,1.1026370447958243e-07
431,272107.3533225482,1.0872011068429118e-07
432,278910.0371576527,1.072368795882803e-07
433,285712.7209927573,1.0581026065590116e-07
434,292515.4048278619,1.0443681870625432e-07
435,299318.08866296645,1.0311340063490416e-07
436,306120.77249807096,1.018371066700352e-07
437,312923.45633317553,1.0060526476409406e-07
438,319726.1401682801,9.941540827432212e-08
439,326528.82398977893,9.826525625031472e-08
440,333331.50782488356,9.715269587482256e-08
441,340134.1916599881,9.607576698588839e-08
442,346936.87549509265,9.503264819355412e-08
443,353739.5593301972,9.40216446672494e-08
444,360542.24316530174,9.304117698660014e-08
445,367344.9270004063,9.208977137502898e-08
446,374147.6108219052,9.116605078437327e-08
447,380950.2946570097,9.026872700288778e-08
