,E (eV),I (erg/s/cm**2)
0,1.360543186192048,0.00024587158985959643
1,2.0408011735840956,0.0003051076087434105
2,2.7210727666801198,0.00032471334132623005
3,3.401344359776144,0.00023097099158816883
4,4.081615952872168,0.0002639317536209399
5,4.761873940264215,0.00030324491060860386
6,5.4421455333602395,0.00035544967779221534
7,6.122417126456264,0.00039369043636015345
8,6.802688719552288,0.00042849643299012016
9,7.482946706944335,0.00045842224391531925
10,8.16321830004036,0.0007711535790179815
11,8.843489893136384,0.0010666099954511098
12,9.523761486232408,0.0013011676574858548
13,10.204019473624456,0.00048334917402355126
14,10.884291066720479,0.00045914551376010385
15,11.564562659816504,0.00037063022657312235
16,12.244834252912527,0.0002652527204667622
17,12.92510584600855,0.00013952072573046224
18,13.7414208731606,5.793884813063164e-06
19,14.421692466256623,5.0903599393265965e-06
20,15.101964059352648,4.7112998659038e-06
21,15.782222046744696,3.819713655502658e-06
22,16.46249363984072,4.300716181870932e-06
23,17.142765232936743,4.237948136058934e-06
24,17.823036826032766,4.154830702901832e-06
25,18.503294813424816,4.178614310193983e-06
26,19.18356640652084,4.017254179113381e-06
27,19.863837999616862,4.047967494966063e-06
28,20.544109592712886,4.411027589619651e-06
29,21.224367580104932,4.39582523682607e-06
30,21.90463917320096,4.021890726045009e-06
31,22.584910766296982,4.101153563573961e-06
32,23.26518235939301,4.909308711335609e-06
33,23.945440346785055,4.978993547699845e-06
34,24.62571193988108,4.759821539911079e-06
35,25.305983532977105,4.417208071999904e-06
36,25.986255126073125,4.65946159473016e-06
37,26.66652671916915,4.08065018930515e-06
38,27.210741272505174,4.018193445290205e-06
39,27.3467847065612,4.497829515124748e-06
40,27.4828417463212,4.091055564522159e-06
41,27.618898786081196,3.7616573012323584e-06
42,27.7549558258412,4.255223402154947e-06
43,27.89099925989722,4.097615620292305e-06
44,28.02705629965722,3.831434554988858e-06
45,28.16311333941722,4.070784188348005e-06
46,28.299170379177223,4.418536056616833e-06
47,28.435213813233247,3.976507092698097e-06
48,28.571270852993244,4.400114971439727e-06
49,28.70732789275325,4.202456728511207e-06
50,28.843384932513246,4.285194502157328e-06
51,28.97942836656927,4.3910347470750945e-06
52,29.115485406329267,4.064359948902159e-06
53,29.25154244608927,4.286935080334664e-06
54,29.387599485849268,4.1637430364595496e-06
55,29.523642919905292,3.6415486161906827e-06
56,29.659699959665296,4.04315856966409e-06
57,29.795756999425294,4.146734705667587e-06
58,29.931814039185298,3.838198578796284e-06
59,30.067857473241315,4.095742435032585e-06
60,30.20391451300132,4.0066244988162175e-06
61,30.339971552761316,3.5776393741049247e-06
62,30.47602859252132,4.065588348565269e-06
63,30.612072026577344,3.867667867151764e-06
64,30.74812906633734,3.4635169095789824e-06
65,30.884186106097346,3.7491507411777507e-06
66,31.020243145857343,3.6780775272387124e-06
67,31.156286579913367,3.238100506042017e-06
68,31.292343619673364,3.4912755684606612e-06
69,31.42840065943337,3.384079349381906e-06
70,31.564457699193365,3.0988323988757434e-06
71,31.70050113324939,3.5627133634453438e-06
72,31.836558173009394,3.1166460978730413e-06
73,31.97261521276939,3.0452227395688814e-06
74,32.108672252529395,3.3720925954291427e-06
75,32.244715686585415,2.9173355817226807e-06
76,32.38077272634541,3.029793842666159e-06
77,32.51682976610541,3.2675156722089035e-06
78,32.652886805865414,2.9010718910754785e-06
79,32.78893023992144,3.277712033711359e-06
80,32.92498727968144,3.1884977053026856e-06
81,33.06104431944144,3.2216223646398318e-06
82,33.19710135920144,3.551053748402394e-06
83,33.33314479325746,3.1262053065443163e-06
84,33.46920183301746,3.6026960147488965e-06
85,33.60525887277746,3.1953447445478e-06
86,33.74131591253746,3.2684888585661307e-06
87,33.87735934659349,3.2187128234608887e-06
88,34.01341638635349,2.8355401082557654e-06
89,34.14947342611349,3.32131046743718e-06
90,34.285530465873485,2.949191858209918e-06
91,34.421573899929506,3.4117251334135747e-06
92,34.55763093968951,3.0708255930418264e-06
93,34.69368797944951,3.0918343392098854e-06
94,34.82974501920951,3.2355357078284946e-06
95,34.96578845326554,3.227047748615577e-06
96,35.101845493025536,3.472056899330429e-06
97,35.23790253278553,3.4264107938610166e-06
98,35.37395957254554,3.618102046038955e-06
99,35.51000300660156,3.4845370620121107e-06
100,35.646060046361555,3.7040269693649923e-06
101,35.78211708612156,3.8023950507080474e-06
102,35.918174125881556,3.647306923436423e-06
103,36.054217559937584,3.782738785096633e-06
104,36.19027459969758,3.86859570685666e-06
105,36.326331639457585,4.084527500255623e-06
106,36.46238867921758,3.960372619831015e-06
107,36.59844571897758,4.011463296149322e-06
108,36.73448915303361,4.234001764205738e-06
109,36.870546192793604,4.135133951388944e-06
110,37.00660323255361,4.4309296753292396e-06
111,37.142660272313606,4.648050405158094e-06
112,37.27870370636963,4.723732936510994e-06
113,37.41476074612963,4.822065150931586e-06
114,37.55081778588963,5.095028607024007e-06
115,37.686874825649625,5.177225739844878e-06
116,37.82291825970565,5.2856061751887985e-06
117,37.958975299465656,5.480817039164313e-06
118,38.095032339225654,5.398295611553196e-06
119,38.23108937898566,5.66231542817001e-06
120,38.36713281304168,5.5580847121429874e-06
121,38.503189852801675,5.7968207861593006e-06
122,38.63924689256167,6.43175006432804e-06
123,38.77530393232168,6.181034361924306e-06
124,38.911347366377704,6.942505618842868e-06
125,39.0474044061377,6.808909312720816e-06
126,39.183461445897706,7.589933044244556e-06
127,39.3195184856577,7.500261448771672e-06
128,39.45556191971372,8.416378966410223e-06
129,39.59161895947372,8.156123209583454e-06
130,39.727675999233725,9.267808876068247e-06
131,39.86373303899372,9.199597015952545e-06
132,39.99977647304975,1.0322285814978776e-05
133,40.135833512809754,1.0110417372346016e-05
134,40.27189055256975,1.1256453023244328e-05
135,40.407947592329755,1.1184764000123994e-05
136,40.54399102638577,1.2493955566954364e-05
137,40.68004806614577,1.2484885703222965e-05
138,40.81610510590577,1.2260642924497794e-05
139,40.952162145665774,2.3730987475018234e-06
140,41.0882055797218,2.386086792457089e-06
141,41.2242626194818,2.4915261251001244e-06
142,41.3603196592418,2.398536004338443e-06
143,41.4963766990018,2.4656081169187965e-06
144,41.63242013305782,2.28997960161112e-06
145,41.76847717281782,2.430061029830881e-06
146,41.90453421257782,2.107850355920732e-06
147,42.04059125233782,2.3180741858398918e-06
148,42.17663468639385,2.0953472539375438e-06
149,42.31269172615385,2.4548029590735445e-06
150,42.44874876591385,2.0393555797383364e-06
151,42.584805805673845,2.577933780675732e-06
152,42.720849239729866,2.196154567321698e-06
153,42.85690627948987,2.5506999400132707e-06
154,42.99296331924987,2.3755906452391145e-06
155,43.12902035900987,2.4497332864428075e-06
156,43.2650637930659,2.4077965820885668e-06
157,43.401120832825896,2.364515489397408e-06
158,43.53717787258589,2.3728041502081253e-06
159,43.67323491234589,2.3605359871714034e-06
160,43.80927834640192,2.268547418075916e-06
161,43.945335386161915,2.2896783902590625e-06
162,44.08139242592192,2.178122922309394e-06
163,44.217449465681916,2.1145078874674103e-06
164,44.353492899737944,2.0745741677768313e-06
165,44.48954993949794,1.8783679436340842e-06
166,44.62560697925794,2.043738747615865e-06
167,44.761664019017935,1.9179937525522493e-06
168,44.89770745307396,2.0445540309442022e-06
169,45.03376449283397,1.9326725241203714e-06
170,45.169821532593964,1.819072998669108e-06
171,45.30587857235397,1.737520426823153e-06
172,45.44192200640999,1.4715280782175412e-06
173,45.577979046169986,1.5071159582280223e-06
174,45.71403608592998,1.3205871447047078e-06
175,45.85009312568999,1.3163310852785447e-06
176,45.986136559746015,1.292960906720424e-06
177,46.12219359950601,1.2205980178019847e-06
178,46.258250639266016,1.1849230283380066e-06
179,46.394307679026014,1.0926310783614252e-06
180,46.53035111308204,1.1763956716069026e-06
181,46.66640815284203,1.0353968601951857e-06
182,46.802465192602035,1.0556994290585506e-06
183,46.93852223236203,1.0502993383319667e-06
184,47.07456566641806,9.222149558084871e-07
185,47.210622706178064,1.0344178120332789e-06
186,47.34667974593806,7.639461266876489e-07
187,47.482736785698066,8.426309035603816e-07
188,47.618780219754086,7.523494249354933e-07
189,47.75483725951408,4.853602573655159e-07
190,47.89089429927408,5.933527335998587e-07
191,48.026951339034085,4.3867520452349365e-07
192,48.16299477309011,3.6416532805079313e-07
193,48.29905181285011,3.2513144871788717e-07
194,48.43506041766452,1.0360770378826638e-06
195,48.43515728755569,1.0360791100318268e-06
196,48.57116589237011,1.1359935424507978e-06
197,48.707222932130115,1.0180126725516694e-06
198,48.84326636618613,1.1555111847152072e-06
199,48.97932340594613,8.677143576360984e-07
200,49.11538044570613,8.145820843886531e-07
201,49.251437485466134,8.616832848066955e-07
202,49.38748091952216,6.040187509603524e-07
203,49.52353795928216,6.165720382293169e-07
204,49.65959499904216,5.527506559750874e-07
205,49.79565203880216,4.924102818930522e-07
206,49.93169547285818,4.831144951564448e-07
207,50.06775251261818,3.769454916724143e-07
208,50.20380955237818,3.522841906671825e-07
209,50.33986659213818,2.971450515379174e-07
210,50.47591002619421,2.983749600526294e-07
211,50.61196706595421,2.912754710614187e-07
212,50.74802410571421,1.226019869710924e-07
213,50.884081145474205,1.412270323199678e-07
214,51.02007355950089,1.9361782721636177e-07
215,51.02017559955957,1.936182144516806e-07
216,51.15618161929023,3.751677622716597e-07
217,51.29223865905023,2.197420204407633e-07
218,51.42829569881023,3.197738060256992e-07
219,51.56433913286626,2.1286637860266118e-07
220,51.700396172626256,1.228558465634562e-07
221,51.83645321238625,1.5539162617994615e-07
222,51.97251025214625,9.82349837645423e-08
223,52.10855368620228,6.310300950326133e-08
224,52.24455848141958,4.814965690130298e-08
225,52.244662970504976,4.814975320058769e-08
226,52.38066776572228,1.0804474368978658e-07
227,52.516724805482276,1.5826063363572958e-07
228,52.652768239538304,8.694730075474007e-08
229,52.7888252792983,4.110646286820248e-08
230,52.92482939423041,2.3192527373051387e-07
231,52.924935243886196,2.3192573758104817e-07
232,53.060939358818295,2.6147160041554013e-07
233,53.19698279287432,2.1605492375676562e-07
234,53.33303983263433,2.582782422977456e-07
235,53.469096872394324,2.3157204370612076e-07
236,53.60515391215433,2.0060164969753278e-07
237,53.74119734621035,2.883454606068181e-07
238,53.877254385970346,2.097674310380626e-07
239,54.01331142573034,2.1778732966716785e-07
240,54.14936846549035,3.124389636635926e-07
241,54.285411899546375,1.7542806678387455e-07
242,54.55752597906638,3.721189967937627e-08
243,61.36021469861866,2.099838157782515e-09
244,68.16288981246697,7.713610250813784e-10
245,74.96557853201926,1.0182199395035524e-09
246,81.76825364586757,5.209041903672837e-10
247,88.57094236541987,9.822633853469249e-10
248,95.37363108497215,8.780887604708951e-10
249,102.17630619882047,6.120578486985809e-10
250,108.97899491837275,6.188712411110814e-10
251,115.78168363792504,6.506351097373342e-10
252,122.58435875177334,6.726996490230842e-10
253,129.38704747132562,7.138264838482072e-10
254,136.05367915111793,7.620603513625128e-10
255,136.1897361908779,7.631392803220414e-10
256,204.0805119238249,1.362977785770758e-09
257,272.10735830223587,2.3700333738550097e-09
258,340.1341910749428,4.406029921515844e-09
259,408.1610238476498,6.453867088949487e-09
260,476.18787022606074,8.574998619456731e-09
261,544.2147029987677,1.058108767131773e-08
262,612.2415493771787,1.2604055956931711e-08
263,680.2683821498856,1.4987532280410378e-08
264,748.2952149225927,1.7218709451091436e-08
265,816.3220613010035,1.9292882641269346e-08
266,884.3488940737104,2.1225075144015444e-08
267,952.3757404521215,2.303476056628513e-08
268,1020.4025732248285,2.474084234494421e-08
269,1088.4294196032395,2.635983960426805e-08
270,1156.4562523759464,2.7905519851879584e-08
271,1224.4830851486533,2.9389112710005782e-08
272,1292.5099315270643,3.081969804950281e-08
273,1360.5367642997712,3.220460588999941e-08
274,1496.590443450889,3.4860024091430004e-08
275,1632.644122602007,3.7390923297342174e-08
276,1768.697801753125,3.982147416379567e-08
277,1904.7514672985392,4.216862446537998e-08
278,2040.805146449657,4.444463547038669e-08
279,2176.8588256007747,4.6658643446414385e-08
280,2312.912504751893,4.8817645491205626e-08
281,2448.966183903011,5.092713438887207e-08
282,2585.0198630541286,5.299151864808761e-08
283,2721.0735285995424,5.501440653944581e-08
284,2857.1272077506605,5.6998804249174796e-08
285,2993.180886901778,5.8947253681698154e-08
286,3129.2345660528963,6.086193433148925e-08
287,3265.288245204014,6.274473700940284e-08
288,3401.3419107494283,6.459731919443907e-08
289,3537.3955899005464,6.642114831291633e-08
290,3673.4492690516645,6.821753271970842e-08
291,3809.502948202782,6.998764841048262e-08
292,3945.5566273539002,7.173255902478283e-08
293,4081.610306505018,7.345323214963538e-08
294,4217.663972050432,7.515055224898922e-08
295,4353.717651201549,7.682533261798763e-08
296,4489.771330352668,7.847832283376702e-08
297,4625.825009503786,8.011021723721552e-08
298,4761.878688654903,8.172166109976609e-08
299,4897.932354200318,8.33132556790061e-08
300,5033.986033351435,8.488556379329233e-08
301,5170.039712502553,8.643911235704738e-08
302,5306.0933916536715,8.797439678390717e-08
303,5442.147070804789,8.949188361868039e-08
304,5578.200749955907,9.099201325105133e-08
305,5714.254415501321,9.247520192046286e-08
306,5850.308094652439,9.394184466610843e-08
307,5986.361773803556,9.539231576375614e-08
308,6122.415452954675,9.682697120086327e-08
309,6258.469132105793,9.824614989113669e-08
310,6394.522797651206,9.965017475855654e-08
311,6530.576476802325,1.010393546998368e-07
312,6666.630155953442,1.0241398439377727e-07
313,6802.68383510456,1.0377434604567293e-07
314,6938.737514255678,1.0512071006570043e-07
315,7074.791179801093,1.064533355992629e-07
316,7210.8448589522095,1.0777247209420708e-07
317,7346.898538103329,1.0907835873301832e-07
318,7482.952217254446,1.103712257306792e-07
319,7619.005896405564,1.1165129480722855e-07
320,7755.059575556682,1.1291877966657394e-07
321,7891.113241102096,1.1417388615964682e-07
322,8027.166920253213,1.1541681364115418e-07
323,8163.220599404332,1.1664775405505163e-07
324,8299.27427855545,1.1786689315037076e-07
325,8435.327957706568,1.1907441061200817e-07
326,8571.38162325198,1.2027048024519822e-07
327,8707.435302403099,1.2145527089562476e-07
328,8843.488981554217,1.226289456530287e-07
329,8979.542660705336,1.237916629333262e-07
330,9115.596339856453,1.2494357642467186e-07
331,9251.650019007571,1.260848353339493e-07
332,9387.703684552984,1.2721558445343478e-07
333,9523.757363704102,1.2833596498320733e-07
334,9659.81104285522,1.2944611381003054e-07
335,9795.86472200634,1.3054616421227487e-07
336,9931.918401157456,1.3163624595099194e-07
337,10067.97206670287,1.3271648515186366e-07
338,10204.025745853987,1.3378700532254694e-07
339,10340.079425005106,1.3484792623711183e-07
340,10476.133104156224,1.3589936486278134e-07
341,10612.186783307343,1.369414353616101e-07
342,10748.24046245846,1.3797424905829928e-07
343,10884.294128003874,1.3899791455505888e-07
344,11020.34780715499,1.4001253828221096e-07
345,11156.40148630611,1.4101822385979447e-07
346,11292.455165457228,1.4201507260693951e-07
347,11428.508844608346,1.430031836419368e-07
348,11564.562510153759,1.4398265367958704e-07
349,11700.616189304877,1.4495357788867686e-07
350,11836.669868455994,1.4591604887276555e-07
351,11972.723547607113,1.4687015743388784e-07
352,12108.777226758231,1.478159924727588e-07
353,12244.83090590935,1.4875364108079107e-07
354,12380.884571454762,1.4968318842211794e-07
355,12516.938250605881,1.506047184269236e-07
356,12652.991929756998,1.515183128948864e-07
357,12789.045608908116,1.5242405220445207e-07
358,12925.099288059235,1.5332201515147464e-07
359,13061.15295360465,1.542122789238926e-07
360,13197.206632755768,1.5509491969635203e-07
361,13333.260311906884,1.559700117836613e-07
362,13469.313991058003,1.568376282557043e-07
363,13605.36767020912,1.5769784095440683e-07
364,16326.441198808663,1.7344763073670493e-07
365,19047.514727408205,1.8673027025384376e-07
366,21768.58826961345,1.9790567127871412e-07
367,24489.661798212994,2.072559350444081e-07
368,27210.735326812537,2.1501007658336827e-07
369,29931.808869017783,2.2135879606172114e-07
370,32652.882397617326,2.2646392255035504e-07
371,35373.95592621687,2.3046478307243834e-07
372,38095.029468422115,2.3348268554943988e-07
373,40816.10299702166,2.3562418957598107e-07
374,43537.1765392269,2.3698356577096315e-07
375,46258.25006782645,2.3764469094714138e-07
376,48979.32359642599,2.3768254308427796e-07
377,51700.39713863123,2.371644006389832e-07
378,54421.47066723078,2.3615082218050312e-07
379,57142.54419583032,2.3469645769571132e-07
380,59863.617738035566,2.328507407931704e-07
381,62584.691266635105,2.3065865103093275e-07
382,65305.76479523465,2.2816132983719344e-07
383,68026.8383374399,2.2539671524074618e-07
384,70747.91186603945,2.2240034911558183e-07
385,73468.98539463898,2.1920634586735453e-07
386,76190.05893684423,2.1584871048000526e-07
387,78911.13246544376,2.1236284811709843e-07
388,81632.20599404332,2.0878779804116145e-07
389,84353.27953624855,2.0516849098728337e-07
390,87074.35306484811,2.0155908868198078e-07
391,89795.42659344764,1.980263116308315e-07
392,92516.5001356529,1.9464884606405256e-07
393,95237.57366425243,1.9143320958566834e-07
394,97958.64719285197,1.883610645768601e-07
395,100679.72073505721,1.8542227888444333e-07
396,103400.79426365678,1.8260768496895128e-07
397,106121.86779225631,1.799089656501897e-07
398,108842.94133446156,1.7731855598607695e-07
399,111564.0148630611,1.7482955811702157e-07
400,114285.08839166064,1.7243566822035153e-07
401,117006.16193386588,1.7013111256471087e-07
402,119727.23546246543,1.679105916282315e-07
403,122448.30900467066,1.6576923179389465e-07
404,125169.38253327021,1.6370254230282997e-07
405,127890.45606186974,1.6170637773057777e-07
406,130611.529604075,1.5977690473567314e-07
407,133332.60313267456,1.5791057266243898e-07
408,136053.6766612741,1.5610408743779528e-07
409,138774.75020347934,1.5435438833277885e-07
410,141495.8237320789,1.526586272677127e-07
411,144216.89726067844,1.5101415022493602e-07
412,146937.97080288368,1.4941848079019763e-07
413,149659.04433148322,1.4786930504022857e-07
414,156461.72816658777,1.441859050970989e-07
415,163264.4120016923,1.4074964779599098e-07
416,170067.0958367969,1.3753463969097605e-07
417,176869.77965829574,1.345185995511787e-07
418,183672.4634934003,1.3168223837391408e-07
419,190475.14732850486,1.2900876423673028e-07
420,197277.83116360943,1.2648348355546696e-07
421,204080.51499871397,1.2409347715844514e-07
422,210883.19883381855,1.218273354388426e-07
423,217685.88266892312,1.1967493982417818e-07
424,224488.56649042197,1.1762728191074024e-07
425,231291.25032552652,1.1567631237742133e-07
426,238093.93416063106,1.138148141849094e-07
427,244896.61799573564,1.1203629571913898e-07
428,251699.30183084018,1.1033490004718288e-07
429,258501.98566594475,1.0870532782073599e-07
430,265304.6695010493,1.0714277106863575e-07
431,272107.3533225482,1.0564285657039438e-07
432,278910.0371576527,1.0420159664541027e-07
433,285712.7209927573,1.0281534698788765e-07
434,292515.4048278619,1.0148076950735477e-07
435,299318.08866296645,1.0019480044423881e-07
436,306120.77249807096,9.895462199169304e-08
437,312923.45633317553,9.775763773997897e-08
438,319726.1401682801,9.660145087034475e-08
439,326528.82398977893,9.54838449565484e-08
440,333331.50782488356,9.44027669486104e-08
441,340134.1916599881,9.335631217586344e-08
442,346936.87549509265,9.234271076908445e-08
443,353739.5593301972,9.136031585892594e-08
444,360542.24316530174,9.040759274107291e-08
445,367344.9270004063,8.948310930273834e-08
446,374147.6108219052,8.85855275259268e-08
447,380950.2946570097,8.771359557126483e-08
