,E (eV),I (erg/s/cm**2)
0,1.360543186192048,0.0001370065428086973
1,2.0408011735840956,0.00017242015360920403
2,2.7210727666801198,0.00019228432525907453
3,3.401344359776144,0.00012861815378723034
4,4.081615952872168,0.0001472960271006789
5,4.761873940264215,0.0001659575011608682
6,5.4421455333602395,0.00019563684813900129
7,6.122417126456264,0.000213714123224143
8,6.802688719552288,0.0002455758044095178
9,7.482946706944335,0.0002592471820633998
10,8.16321830004036,0.0002900082202767478
11,8.843489893136384,0.0003043666280367672
12,9.523761486232408,0.0009954661117178415
13,10.204019473624456,0.0002830707432248602
14,10.884291066720479,0.0002923367518073695
15,11.564562659816504,0.0002645867514330826
16,12.244834252912527,0.00020188524544289304
17,12.92510584600855,0.00010504283014081114
18,13.7414208731606,4.262968021759194e-06
19,14.421692466256623,3.6769600997669463e-06
20,15.101964059352648,3.3887990789825026e-06
21,15.782222046744696,2.638645330341791e-06
22,16.46249363984072,3.0320870377646993e-06
23,17.142765232936743,3.0415927078993145e-06
24,17.823036826032766,2.953186612275434e-06
25,18.503294813424816,2.936971249939709e-06
26,19.18356640652084,2.9675422659554657e-06
27,19.863837999616862,2.909313726239855e-06
28,20.544109592712886,3.213142783468847e-06
29,21.224367580104932,3.181926030702465e-06
30,21.90463917320096,3.03781027437207e-06
31,22.584910766296982,2.9619694878767483e-06
32,23.26518235939301,3.6961985654046277e-06
33,23.945440346785055,3.7317703121147826e-06
34,24.62571193988108,3.5422768266464072e-06
35,25.305983532977105,3.2865312991640643e-06
36,25.986255126073125,3.538344532335354e-06
37,26.66652671916915,3.179918617589721e-06
38,27.210741272505174,3.1818725323693892e-06
39,27.3467847065612,3.251701473419641e-06
40,27.4828417463212,3.0507611892558834e-06
41,27.618898786081196,2.8937630894759956e-06
42,27.7549558258412,3.2002537192594877e-06
43,27.89099925989722,2.9755874955025904e-06
44,28.02705629965722,3.0214409699999028e-06
45,28.16311333941722,3.0387663444305773e-06
46,28.299170379177223,3.2755233041164273e-06
47,28.435213813233247,3.0829220177177544e-06
48,28.571270852993244,3.3396804577904686e-06
49,28.70732789275325,3.301635261996063e-06
50,28.843384932513246,3.2798299062339875e-06
51,28.97942836656927,3.288290418179076e-06
52,29.115485406329267,3.214666534866897e-06
53,29.25154244608927,3.3173569732343167e-06
54,29.387599485849268,3.1476365835565464e-06
55,29.523642919905292,2.8487869351019043e-06
56,29.659699959665296,3.0925526510346997e-06
57,29.795756999425294,3.068664418973124e-06
58,29.931814039185298,3.1681962828693157e-06
59,30.067857473241315,3.181353034247619e-06
60,30.20391451300132,2.8871419624936053e-06
61,30.339971552761316,2.963806429103873e-06
62,30.47602859252132,3.214218956316406e-06
63,30.612072026577344,2.8504213765931597e-06
64,30.74812906633734,2.7874217160517065e-06
65,30.884186106097346,2.8923007642934766e-06
66,31.020243145857343,2.7966311947758092e-06
67,31.156286579913367,2.713405033548023e-06
68,31.292343619673364,2.582680198441031e-06
69,31.42840065943337,2.4488965707024584e-06
70,31.564457699193365,2.70215748947154e-06
71,31.70050113324939,2.6213174463085146e-06
72,31.836558173009394,2.244907845246593e-06
73,31.97261521276939,2.5312892639037316e-06
74,32.108672252529395,2.3865434000392285e-06
75,32.244715686585415,2.237455581624429e-06
76,32.38077272634541,2.379149645967091e-06
77,32.51682976610541,2.1883971433475922e-06
78,32.652886805865414,2.359453960823515e-06
79,32.78893023992144,2.4264641103685957e-06
80,32.92498727968144,2.3818969969620733e-06
81,33.06104431944144,2.597044321986457e-06
82,33.19710135920144,2.5866377173050266e-06
83,33.33314479325746,2.543295946213247e-06
84,33.46920183301746,2.6712949315963464e-06
85,33.60525887277746,2.4515453241611326e-06
86,33.74131591253746,2.5079054822322013e-06
87,33.87735934659349,2.260775719536311e-06
88,34.01341638635349,2.2510630871660587e-06
89,34.14947342611349,2.3462299974509014e-06
90,34.285530465873485,2.226696704058905e-06
91,34.421573899929506,2.5150098693737416e-06
92,34.55763093968951,2.194219013771359e-06
93,34.69368797944951,2.2454480066611033e-06
94,34.82974501920951,2.2496957714680927e-06
95,34.96578845326554,2.3153762571409696e-06
96,35.101845493025536,2.430341794422082e-06
97,35.23790253278553,2.530541949951809e-06
98,35.37395957254554,2.448201338659595e-06
99,35.51000300660156,2.5150474357218375e-06
100,35.646060046361555,2.6665265521358852e-06
101,35.78211708612156,2.6251550886057374e-06
102,35.918174125881556,2.82042338660732e-06
103,36.054217559937584,2.6352638248829425e-06
104,36.19027459969758,3.0012971389058187e-06
105,36.326331639457585,3.006785758877298e-06
106,36.46238867921758,2.863805646508428e-06
107,36.59844571897758,2.994862222793382e-06
108,36.73448915303361,2.93176609564022e-06
109,36.870546192793604,3.242372630816884e-06
110,37.00660323255361,3.0498423390248278e-06
111,37.142660272313606,3.463072822022561e-06
112,37.27870370636963,3.5082260022208954e-06
113,37.41476074612963,3.4514120929307545e-06
114,37.55081778588963,3.994729773619053e-06
115,37.686874825649625,3.6338318264270476e-06
116,37.82291825970565,4.114787007637096e-06
117,37.958975299465656,4.1382289517398055e-06
118,38.095032339225654,4.125983246642396e-06
119,38.23108937898566,4.4003439763685e-06
120,38.36713281304168,4.142722912051866e-06
121,38.503189852801675,4.590150033238877e-06
122,38.63924689256167,4.899884253619725e-06
123,38.77530393232168,4.961747193893386e-06
124,38.911347366377704,5.445181566210525e-06
125,39.0474044061377,5.505763104992257e-06
126,39.183461445897706,6.121696190876988e-06
127,39.3195184856577,6.798549266483395e-06
128,39.45556191971372,6.964591310231666e-06
129,39.59161895947372,7.55264829062468e-06
130,39.727675999233725,7.88310281818192e-06
131,39.86373303899372,8.792274731566555e-06
132,39.99977647304975,8.948954921747973e-06
133,40.135833512809754,9.939125310919528e-06
134,40.27189055256975,9.942332295044441e-06
135,40.407947592329755,1.132309604633848e-05
136,40.54399102638577,1.1313037971342328e-05
137,40.68004806614577,1.2918617523060451e-05
138,40.81610510590577,1.2631254280842064e-05
139,40.952162145665774,1.8887246039825303e-06
140,41.0882055797218,1.8469689996926533e-06
141,41.2242626194818,1.9792938182067612e-06
142,41.3603196592418,1.8918721241639804e-06
143,41.4963766990018,1.9184095150350973e-06
144,41.63242013305782,1.8340147122366762e-06
145,41.76847717281782,1.836360190432728e-06
146,41.90453421257782,1.7058084760736394e-06
147,42.04059125233782,1.7152729502520404e-06
148,42.17663468639385,1.744603747150375e-06
149,42.31269172615385,1.787890499870323e-06
150,42.44874876591385,1.7746748609580449e-06
151,42.584805805673845,1.916447851910548e-06
152,42.720849239729866,1.8778692146893908e-06
153,42.85690627948987,1.9765448087560904e-06
154,42.99296331924987,2.007648997219692e-06
155,43.12902035900987,1.94056690191469e-06
156,43.2650637930659,2.0273256302259122e-06
157,43.401120832825896,1.8912975110414235e-06
158,43.53717787258589,2.015581719356784e-06
159,43.67323491234589,1.9034514080875862e-06
160,43.80927834640192,1.941168870250592e-06
161,43.945335386161915,1.8629586426086494e-06
162,44.08139242592192,1.8526178740581699e-06
163,44.217449465681916,1.7438914996582743e-06
164,44.353492899737944,1.7217380411180595e-06
165,44.48954993949794,1.6017888393087652e-06
166,44.62560697925794,1.682233926133228e-06
167,44.761664019017935,1.672928404676587e-06
168,44.89770745307396,1.729061837290496e-06
169,45.03376449283397,1.6692941812516645e-06
170,45.169821532593964,1.5444631365970245e-06
171,45.30587857235397,1.4685594883242442e-06
172,45.44192200640999,1.269414894629079e-06
173,45.577979046169986,1.2395535064605056e-06
174,45.71403608592998,1.149080766729666e-06
175,45.85009312568999,1.0995124206146134e-06
176,45.986136559746015,1.1148958053373506e-06
177,46.12219359950601,1.067372024639965e-06
178,46.258250639266016,1.0055980984343507e-06
179,46.394307679026014,9.624667591565172e-07
180,46.53035111308204,9.874884712279587e-07
181,46.66640815284203,9.414949501715336e-07
182,46.802465192602035,9.137169974847171e-07
183,46.93852223236203,9.146175509885631e-07
184,47.07456566641806,9.051314760789995e-07
185,47.210622706178064,8.571212512375723e-07
186,47.34667974593806,7.602558744653752e-07
187,47.482736785698066,6.874306101851173e-07
188,47.618780219754086,6.87508468375846e-07
189,47.75483725951408,5.219081472005209e-07
190,47.89089429927408,4.907797130038076e-07
191,48.026951339034085,4.254630396716532e-07
192,48.16299477309011,3.188940617305939e-07
193,48.29905181285011,2.841384101232218e-07
194,48.43506041766452,8.65970086976442e-07
195,48.43515728755569,8.659718189125096e-07
196,48.57116589237011,9.918679365394303e-07
197,48.707222932130115,9.324710481190176e-07
198,48.84326636618613,9.726336427930838e-07
199,48.97932340594613,8.01424937048138e-07
200,49.11538044570613,7.561224946975286e-07
201,49.251437485466134,6.908439375925848e-07
202,49.38748091952216,5.710349243874662e-07
203,49.52353795928216,5.200791445938778e-07
204,49.65959499904216,5.206595485217532e-07
205,49.79565203880216,4.2826911356480625e-07
206,49.93169547285818,3.763333068681549e-07
207,50.06775251261818,3.2294285587736566e-07
208,50.20380955237818,2.8783375680801895e-07
209,50.33986659213818,3.679291154854632e-07
210,50.47591002619421,2.5022693784883e-07
211,50.61196706595421,2.370301541135597e-07
212,50.74802410571421,1.0402162746188554e-07
213,50.884081145474205,1.2063043420263831e-07
214,51.02007355950089,1.673195677076058e-07
215,51.02017559955957,1.6731990234645123e-07
216,51.15618161929023,3.239186614432494e-07
217,51.29223865905023,2.1382922389614142e-07
218,51.42829569881023,2.657523749895798e-07
219,51.56433913286626,2.1520213393945867e-07
220,51.700396172626256,1.0685592306188805e-07
221,51.83645321238625,1.3158629424470073e-07
222,51.97251025214625,8.244633632123645e-08
223,52.10855368620228,5.1158824280543835e-08
224,52.24455848141958,3.7856467223457004e-08
225,52.244662970504976,3.785654293636858e-08
226,52.38066776572228,9.807055543171589e-08
227,52.516724805482276,1.325502417648529e-07
228,52.652768239538304,7.210323445766632e-08
229,52.7888252792983,3.138851500009976e-08
230,52.92482939423041,1.867551379581699e-07
231,52.924935243886196,1.867555114684352e-07
232,53.060939358818295,2.1158110596657717e-07
233,53.19698279287432,2.0377877306422904e-07
234,53.33303983263433,1.9218628155353406e-07
235,53.469096872394324,2.3716246900804546e-07
236,53.60515391215433,1.82317642442604e-07
237,53.74119734621035,2.1428746422738378e-07
238,53.877254385970346,2.0514837203721448e-07
239,54.01331142573034,2.0294454400580094e-07
240,54.14936846549035,2.742522757307095e-07
241,54.285411899546375,1.519888118151981e-07
242,54.55752597906638,3.349867695005573e-08
243,61.36021469861866,1.4501669664713407e-09
244,68.16288981246697,3.927057102360345e-10
245,74.96557853201926,5.642246074354344e-10
246,81.76825364586757,1.7876076213958182e-10
247,88.57094236541987,5.192058606024808e-10
248,95.37363108497215,4.2308492960353723e-10
249,102.17630619882047,2.0198530975126155e-10
250,108.97899491837275,1.886299785841784e-10
251,115.78168363792504,1.9400242598730453e-10
252,122.58435875177334,1.893240748114675e-10
253,129.38704747132562,1.9922830881252703e-10
254,136.05367915111793,2.1349170697832362e-10
255,136.1897361908779,2.1385775785468761e-10
256,204.0805119238249,3.8834632914430507e-10
257,272.10735830223587,6.762231499658233e-10
258,340.1341910749428,1.272508791397804e-09
259,408.1610238476498,1.9290630252229943e-09
260,476.18787022606074,2.600063071018028e-09
261,544.2147029987677,3.2474838653334706e-09
262,612.2415493771787,3.8921607692712454e-09
263,680.2683821498856,4.648870873090166e-09
264,748.2952149225927,5.35406842904773e-09
265,816.3220613010035,6.007127425879902e-09
266,884.3488940737104,6.613726700543837e-09
267,952.3757404521215,7.180702089801639e-09
268,1020.4025732248285,7.714465229816825e-09
269,1088.4294196032395,8.220500343290713e-09
270,1156.4562523759464,8.70331110472759e-09
271,1224.4830851486533,9.166531811183528e-09
272,1292.5099315270643,9.613077553138835e-09
273,1360.5367642997712,1.0045287264659584e-08
274,1496.590443450889,1.0873881237561953e-08
275,1632.644122602007,1.166355383228821e-08
276,1768.697801753125,1.2421907452402053e-08
277,1904.7514672985392,1.315425531379281e-08
278,2040.805146449657,1.386443312940036e-08
279,2176.8588256007747,1.455529494696883e-08
280,2312.912504751893,1.5229024475702992e-08
281,2448.966183903011,1.5887334866503342e-08
282,2585.0198630541286,1.653160048852755e-08
283,2721.0735285995424,1.716294592751608e-08
284,2857.1272077506605,1.7782307946803997e-08
285,2993.180886901778,1.8390478530723804e-08
286,3129.2345660528963,1.8988136676795264e-08
287,3265.288245204014,1.957587143988981e-08
288,3401.3419107494283,2.0154199144789516e-08
289,3537.3955899005464,2.072357689401792e-08
290,3673.4492690516645,2.1284412256870076e-08
291,3809.502948202782,2.183707153247111e-08
292,3945.5566273539002,2.2381886040608697e-08
293,4081.610306505018,2.291915715437518e-08
294,4217.663972050432,2.344916036835827e-08
295,4353.717651201549,2.3972148989816393e-08
296,4489.771330352668,2.4488356486616072e-08
297,4625.825009503786,2.4997999108018932e-08
298,4761.878688654903,2.5501277809047212e-08
299,4897.932354200318,2.5998379852181098e-08
300,5033.986033351435,2.6489480500636806e-08
301,5170.039712502553,2.697474385723656e-08
302,5306.0933916536715,2.7454324165160727e-08
303,5442.147070804789,2.792836672817448e-08
304,5578.200749955907,2.8397008657677903e-08
305,5714.254415501321,2.886037956097608e-08
306,5850.308094652439,2.931860242975041e-08
307,5986.361773803556,2.977179379590446e-08
308,6122.415452954675,3.022006449066309e-08
309,6258.469132105793,3.0663520009062156e-08
310,6394.522797651206,3.1102260896971865e-08
311,6530.576476802325,3.153638329312051e-08
312,6666.630155953442,3.1965978940330565e-08
313,6802.68383510456,3.2391135664985683e-08
314,6938.737514255678,3.281193763938305e-08
315,7074.791179801093,3.3228465517821625e-08
316,7210.8448589522095,3.3640796940519515e-08
317,7346.898538103329,3.404900633306876e-08
318,7482.952217254446,3.4453165342099105e-08
319,7619.005896405564,3.485334296743897e-08
320,7755.059575556682,3.524960570324102e-08
321,7891.113241102096,3.56420176046598e-08
322,8027.166920253213,3.603064069505292e-08
323,8163.220599404332,3.6415534696631173e-08
324,8299.27427855545,3.6796757410275556e-08
325,8435.327957706568,3.7174364730954926e-08
326,8571.38162325198,3.75484107215782e-08
327,8707.435302403099,3.79189479088387e-08
328,8843.488981554217,3.8286027034867365e-08
329,8979.542660705336,3.8649697368654075e-08
330,9115.596339856453,3.901000670620553e-08
331,9251.650019007571,3.9367001474582516e-08
332,9387.703684552984,3.972072668979908e-08
333,9523.757363704102,4.007122628567425e-08
334,9659.81104285522,4.0418542806425366e-08
335,9795.86472200634,4.0762717727913174e-08
336,9931.918401157456,4.11037913747837e-08
337,10067.97206670287,4.144180299566372e-08
338,10204.025745853987,4.1776790967642257e-08
339,10340.079425005106,4.210879255218726e-08
340,10476.133104156224,4.243784411795387e-08
341,10612.186783307343,4.2763981140466235e-08
342,10748.24046245846,4.3087238260696714e-08
343,10884.294128003874,4.340764920277794e-08
344,11020.34780715499,4.372524709431918e-08
345,11156.40148630611,4.404006412793616e-08
346,11292.455165457228,4.435213179977426e-08
347,11428.508844608346,4.466148092085326e-08
348,11564.562510153759,4.4968141564074595e-08
349,11700.616189304877,4.527214330103919e-08
350,11836.669868455994,4.557351490396718e-08
351,11972.723547607113,4.587228461584825e-08
352,12108.777226758231,4.616848005647026e-08
353,12244.83090590935,4.646212829287481e-08
354,12380.884571454762,4.6753255792034026e-08
355,12516.938250605881,4.7041888648194626e-08
356,12652.991929756998,4.732805227043213e-08
357,12789.045608908116,4.761177163637718e-08
358,12925.099288059235,4.789307124209996e-08
359,13061.15295360465,4.817197505011213e-08
360,13197.206632755768,4.844850674104358e-08
361,13333.260311906884,4.872268940524985e-08
362,13469.313991058003,4.899454576838019e-08
363,13605.36767020912,4.926409810651871e-08
364,16326.441198808663,5.420247220882794e-08
365,19047.514727408205,5.837279883213667e-08
366,21768.58826961345,6.188683023267e-08
367,24489.661798212994,6.483213607681465e-08
368,27210.735326812537,6.727979797006514e-08
369,29931.808869017783,6.928900428642171e-08
370,32652.882397617326,7.090998633767493e-08
371,35373.95592621687,7.21859975939476e-08
372,38095.029468422115,7.315470600126092e-08
373,40816.10299702166,7.384920930070606e-08
374,43537.1765392269,7.42987979933493e-08
375,46258.25006782645,7.452954310960399e-08
376,48979.32359642599,7.456475941823134e-08
377,51700.39713863123,7.442537709373796e-08
378,54421.47066723078,7.413024496352221e-08
379,57142.54419583032,7.369638170472246e-08
380,59863.617738035566,7.313918621473249e-08
381,62584.691266635105,7.247261592232447e-08
382,65305.76479523465,7.170934061281386e-08
383,68026.8383374399,7.0861003625162e-08
384,70747.91186603945,6.99384988518093e-08
385,73468.98539463898,6.895215727659899e-08
386,76190.05893684423,6.791213508635094e-08
387,78911.13246544376,6.68289495268731e-08
388,81632.20599404332,6.571420235662948e-08
389,84353.27953624855,6.458158619025166e-08
390,87074.35306484811,6.34481742066913e-08
391,89795.42659344764,6.233610685625995e-08
392,92516.5001356529,6.12725442790396e-08
393,95237.57366425243,6.026015876011989e-08
394,97958.64719285197,5.929294923516419e-08
395,100679.72073505721,5.836772574209838e-08
396,103400.79426365678,5.7481601994855695e-08
397,106121.86779225631,5.663195949210362e-08
398,108842.94133446156,5.5816416518339134e-08
399,111564.0148630611,5.503280138820577e-08
400,114285.08839166064,5.4279129436332854e-08
401,117006.16193386588,5.355358289787986e-08
402,119727.23546246543,5.285449331462866e-08
403,122448.30900467066,5.218032629058693e-08
404,125169.38253327021,5.152966797692001e-08
405,127890.45606186974,5.09012132459847e-08
406,130611.529604075,5.029375525764566e-08
407,133332.60313267456,4.97061761221041e-08
408,136053.6766612741,4.913743876386011e-08
409,138774.75020347934,4.8586579558913524e-08
410,141495.8237320789,4.805270183122033e-08
411,144216.89726067844,4.753497001189152e-08
412,146937.97080288368,4.703260442452361e-08
413,149659.04433148322,4.65448765928843e-08
414,156461.72816658777,4.5385230250662566e-08
415,163264.4120016923,4.430339250925463e-08
416,170067.0958367969,4.329121123751819e-08
417,176869.77965829574,4.2341671565037243e-08
418,183672.4634934003,4.144870066247173e-08
419,190475.14732850486,4.060701186565139e-08
420,197277.83116360943,3.9811979149490273e-08
421,204080.51499871397,3.9059535127963565e-08
422,210883.19883381855,3.834608766439084e-08
423,217685.88266892312,3.766845110777878e-08
424,224488.56649042197,3.7023789323624757e-08
425,231291.25032552652,3.6409568111277075e-08
426,238093.93416063106,3.582351530977071e-08
427,244896.61799573564,3.526358713137311e-08
428,251699.30183084018,3.472793964202009e-08
429,258501.98566594475,3.421490442363771e-08
430,265304.6695010493,3.3722967786851756e-08
431,272107.3533225482,3.325075286501427e-08
432,278910.0371576527,3.27970042457282e-08
433,285712.7209927573,3.236057454964767e-08
434,292515.4048278619,3.194041286889398e-08
435,299318.08866296645,3.153555460866791e-08
436,306120.77249807096,3.114511264262114e-08
437,312923.45633317553,3.076826953749112e-08
438,319726.1401682801,3.0404270688596797e-08
439,326528.82398977893,3.0052418303889624e-08
440,333331.50782488356,2.9712066025199322e-08
441,340134.1916599881,2.9382614186659994e-08
442,346936.87549509265,2.9063505581450358e-08
443,353739.5593301972,2.8754221725463465e-08
444,360542.24316530174,2.8454279439784037e-08
445,367344.9270004063,2.8163227863071154e-08
446,374147.6108219052,2.7880645724284075e-08
447,380950.2946570097,2.7606138928453695e-08
448,387752.9784921143,2.733933831786332e-08
