,E (eV),I (erg/s/cm**2)
0,1.360543186192048,0.00021760726105524148
1,2.0408011735840956,0.00027675612102934444
2,2.7210727666801198,0.00029610699914399315
3,3.401344359776144,0.00020625916323038467
4,4.081615952872168,0.0002362729657660798
5,4.761873940264215,0.00027334577294315987
6,5.4421455333602395,0.00031237398996739876
7,6.122417126456264,0.0003483636635281964
8,6.802688719552288,0.0003884897735554877
9,7.482946706944335,0.0004145656304115336
10,8.16321830004036,0.0004539481032849805
11,8.843489893136384,0.0009904494624915156
12,9.523761486232408,0.0012425575209272796
13,10.204019473624456,0.0004293648884486968
14,10.884291066720479,0.0004269931554070536
15,11.564562659816504,0.00034256954780957475
16,12.244834252912527,0.0002508414357386714
17,12.92510584600855,0.00012599108675408934
18,13.7414208731606,5.4183250308075974e-06
19,14.421692466256623,4.720584584044201e-06
20,15.101964059352648,4.380929187615993e-06
21,15.782222046744696,3.508604424336002e-06
22,16.46249363984072,3.976010874244574e-06
23,17.142765232936743,3.937095854947245e-06
24,17.823036826032766,3.878352695451817e-06
25,18.503294813424816,3.884238111165507e-06
26,19.18356640652084,3.8141797309045043e-06
27,19.863837999616862,3.7178528951199944e-06
28,20.544109592712886,4.111947726973196e-06
29,21.224367580104932,4.1117525838941955e-06
30,21.90463917320096,3.721660550997305e-06
31,22.584910766296982,3.8360684799000065e-06
32,23.26518235939301,4.59068957089449e-06
33,23.945440346785055,4.663367428940534e-06
34,24.62571193988108,4.434041820353727e-06
35,25.305983532977105,4.13175034971556e-06
36,25.986255126073125,4.347364481809984e-06
37,26.66652671916915,3.919486470810253e-06
38,27.210741272505174,3.86617468457557e-06
39,27.3467847065612,4.161685005184429e-06
40,27.4828417463212,3.786364232885728e-06
41,27.618898786081196,3.562339298723321e-06
42,27.7549558258412,4.0403990207503345e-06
43,27.89099925989722,3.7639205850803776e-06
44,28.02705629965722,3.6638682404941003e-06
45,28.16311333941722,3.795001999674594e-06
46,28.299170379177223,4.153740044792685e-06
47,28.435213813233247,3.7284249111969873e-06
48,28.571270852993244,4.153562061754974e-06
49,28.70732789275325,4.019533425725802e-06
50,28.843384932513246,4.0429081923436344e-06
51,28.97942836656927,4.09974914029289e-06
52,29.115485406329267,3.869196955549646e-06
53,29.25154244608927,4.088774434424944e-06
54,29.387599485849268,3.844240937088121e-06
55,29.523642919905292,3.482689831862419e-06
56,29.659699959665296,3.90999370032843e-06
57,29.795756999425294,3.7715925163483965e-06
58,29.931814039185298,3.6720351070812467e-06
59,30.067857473241315,4.003429161181732e-06
60,30.20391451300132,3.6302440729187557e-06
61,30.339971552761316,3.4090917097858945e-06
62,30.47602859252132,3.966528310801808e-06
63,30.612072026577344,3.539854512269969e-06
64,30.74812906633734,3.264516419336866e-06
65,30.884186106097346,3.641747400058858e-06
66,31.020243145857343,3.393530778124051e-06
67,31.156286579913367,3.1016849981644738e-06
68,31.292343619673364,3.350942118079718e-06
69,31.42840065943337,3.0505031680486196e-06
70,31.564457699193365,3.0422050726214406e-06
71,31.70050113324939,3.3948771425167805e-06
72,31.836558173009394,2.781019919429105e-06
73,31.97261521276939,3.0050098122202e-06
74,32.108672252529395,3.1471477740763636e-06
75,32.244715686585415,2.6687887207608638e-06
76,32.38077272634541,2.9370063727071715e-06
77,32.51682976610541,2.940232035047525e-06
78,32.652886805865414,2.7440663864488342e-06
79,32.78893023992144,3.1380955236901006e-06
80,32.92498727968144,2.8776806754033917e-06
81,33.06104431944144,3.129097425783107e-06
82,33.19710135920144,3.3014089316168714e-06
83,33.33314479325746,2.9555949030246228e-06
84,33.46920183301746,3.415528727990423e-06
85,33.60525887277746,2.9820173256304645e-06
86,33.74131591253746,3.1122010980594647e-06
87,33.87735934659349,2.973866184815942e-06
88,34.01341638635349,2.7162285184962802e-06
89,34.14947342611349,3.0361878080915275e-06
90,34.285530465873485,2.812490274089373e-06
91,34.421573899929506,3.187690428072054e-06
92,34.55763093968951,2.8090614596892455e-06
93,34.69368797944951,2.981208453397386e-06
94,34.82974501920951,2.898928239645931e-06
95,34.96578845326554,3.0391868835738924e-06
96,35.101845493025536,3.205564979978208e-06
97,35.23790253278553,3.1823546094935625e-06
98,35.37395957254554,3.4285604399013174e-06
99,35.51000300660156,3.177802165823433e-06
100,35.646060046361555,3.5293189667722317e-06
101,35.78211708612156,3.48263330471115e-06
102,35.918174125881556,3.4151769359083723e-06
103,36.054217559937584,3.5302037266014055e-06
104,36.19027459969758,3.5981771579105623e-06
105,36.326331639457585,3.912201764481337e-06
106,36.46238867921758,3.5800341882096207e-06
107,36.59844571897758,3.807514020067096e-06
108,36.73448915303361,3.8596642505221935e-06
109,36.870546192793604,3.897443666468525e-06
110,37.00660323255361,4.204739641655916e-06
111,37.142660272313606,4.2303199736484955e-06
112,37.27870370636963,4.488886983535915e-06
113,37.41476074612963,4.4057218288903926e-06
114,37.55081778588963,4.845179602977019e-06
115,37.686874825649625,4.728964644801777e-06
116,37.82291825970565,5.029711372397775e-06
117,37.958975299465656,5.247413469938633e-06
118,38.095032339225654,5.1419971560810995e-06
119,38.23108937898566,5.449110043386262e-06
120,38.36713281304168,5.295038019497945e-06
121,38.503189852801675,5.595298403366118e-06
122,38.63924689256167,5.763881477206837e-06
123,38.77530393232168,5.985236596514864e-06
124,38.911347366377704,6.223833620715271e-06
125,39.0474044061377,6.615259688079351e-06
126,39.183461445897706,6.805677544529392e-06
127,39.3195184856577,7.3295642634928814e-06
128,39.45556191971372,8.21906733503259e-06
129,39.59161895947372,8.018400159299597e-06
130,39.727675999233725,9.088858893101884e-06
131,39.86373303899372,9.116807648220977e-06
132,39.99977647304975,1.016357792832924e-05
133,40.135833512809754,1.0099045727600843e-05
134,40.27189055256975,1.1149148371636533e-05
135,40.407947592329755,1.125425552727542e-05
136,40.54399102638577,1.2459231159958912e-05
137,40.68004806614577,1.2623588027030183e-05
138,40.81610510590577,1.2230916012094677e-05
139,40.952162145665774,2.3413872965371915e-06
140,41.0882055797218,2.173094197754889e-06
141,41.2242626194818,2.461118769063332e-06
142,41.3603196592418,2.19200896455672e-06
143,41.4963766990018,2.4337895133685295e-06
144,41.63242013305782,2.0920010231749594e-06
145,41.76847717281782,2.3846596380094242e-06
146,41.90453421257782,1.9192458953612993e-06
147,42.04059125233782,2.2639117773500735e-06
148,42.17663468639385,1.936103498141921e-06
149,42.31269172615385,2.3472093236560336e-06
150,42.44874876591385,1.9766664101097945e-06
151,42.584805805673845,2.4295190136820843e-06
152,42.720849239729866,2.1205671884781463e-06
153,42.85690627948987,2.423930346862948e-06
154,42.99296331924987,2.289374306830228e-06
155,43.12902035900987,2.334784599169961e-06
156,43.2650637930659,2.3212293628913386e-06
157,43.401120832825896,2.249196395367884e-06
158,43.53717787258589,2.2971308815165153e-06
159,43.67323491234589,2.2481452025265567e-06
160,43.80927834640192,2.2169862362824043e-06
161,43.945335386161915,2.1744239065441128e-06
162,44.08139242592192,2.1282697061065144e-06
163,44.217449465681916,2.008858917649008e-06
164,44.353492899737944,2.0122659267077257e-06
165,44.48954993949794,1.8149747835869577e-06
166,44.62560697925794,1.9634247263837028e-06
167,44.761664019017935,1.871165878013349e-06
168,44.89770745307396,1.9814296882159742e-06
169,45.03376449283397,1.8745492440516694e-06
170,45.169821532593964,1.757764640078408e-06
171,45.30587857235397,1.6803920015746667e-06
172,45.44192200640999,1.4191425455349042e-06
173,45.577979046169986,1.4261032963473706e-06
174,45.71403608592998,1.3069315103454487e-06
175,45.85009312568999,1.2173230897035686e-06
176,45.986136559746015,1.2638768653821583e-06
177,46.12219359950601,1.2108900412896098e-06
178,46.258250639266016,1.1378031475424778e-06
179,46.394307679026014,1.063714947230944e-06
180,46.53035111308204,1.122599484639032e-06
181,46.66640815284203,1.0394030753516696e-06
182,46.802465192602035,9.85412580691241e-07
183,46.93852223236203,1.0468131042174882e-06
184,47.07456566641806,8.727186296456303e-07
185,47.210622706178064,9.925177894756421e-07
186,47.34667974593806,7.70199065600668e-07
187,47.482736785698066,8.067703145163898e-07
188,47.618780219754086,7.493173161915019e-07
189,47.75483725951408,4.6486332691160803e-07
190,47.89089429927408,5.701466055317928e-07
191,48.026951339034085,4.3882862648915995e-07
192,48.16299477309011,3.549781214027103e-07
193,48.29905181285011,3.1672084036124634e-07
194,48.43506041766452,9.871199138838306e-07
195,48.43515728755569,9.871218881189775e-07
196,48.57116589237011,1.0994358230693341e-06
197,48.707222932130115,9.996533050111025e-07
198,48.84326636618613,1.1008997004866893e-06
199,48.97932340594613,9.114558207238036e-07
200,49.11538044570613,7.865512166095994e-07
201,49.251437485466134,8.201052616307515e-07
202,49.38748091952216,5.92238653980911e-07
203,49.52353795928216,5.872297660926383e-07
204,49.65959499904216,5.273164491382374e-07
205,49.79565203880216,4.73003289933301e-07
206,49.93169547285818,4.548675919553044e-07
207,50.06775251261818,3.675572921463746e-07
208,50.20380955237818,3.3676823178235553e-07
209,50.33986659213818,2.882431808389176e-07
210,50.47591002619421,2.856346909894875e-07
211,50.61196706595421,2.7842074728515527e-07
212,50.74802410571421,1.1829852498119611e-07
213,50.884081145474205,1.36562181621143e-07
214,51.02007355950089,1.879252816248532e-07
215,51.02017559955957,1.8792565747509073e-07
216,51.15618161929023,3.649788862609691e-07
217,51.29223865905023,2.1936160348988952e-07
218,51.42829569881023,3.0671147795706103e-07
219,51.56433913286626,2.0694808007801351e-07
220,51.700396172626256,1.1891031146304234e-07
221,51.83645321238625,1.4962457930447637e-07
222,51.97251025214625,9.445794453256271e-08
223,52.10855368620228,6.002134067455124e-08
224,52.24455848141958,4.5371144011645045e-08
225,52.244662970504976,4.537123475390565e-08
226,52.38066776572228,1.0561238841720994e-07
227,52.516724805482276,1.5196059763810837e-07
228,52.652768239538304,8.32249175051388e-08
229,52.7888252792983,3.837664905927562e-08
230,52.92482939423041,2.211562306297947e-07
231,52.924935243886196,2.2115667294224342e-07
232,53.060939358818295,2.660393278553092e-07
233,53.19698279287432,2.0782403622659264e-07
234,53.33303983263433,2.3176163028403793e-07
235,53.469096872394324,2.343141130785697e-07
236,53.60515391215433,1.9644020732910654e-07
237,53.74119734621035,2.6954360805502557e-07
238,53.877254385970346,2.0951248903370895e-07
239,54.01331142573034,2.109330378369317e-07
240,54.14936846549035,3.0424362860823843e-07
241,54.285411899546375,1.699131243284332e-07
242,54.55752597906638,3.600313552458049e-08
243,61.36021469861866,1.898368170509833e-09
244,68.16288981246697,6.435623761144873e-10
245,74.96557853201926,8.682904604748089e-10
246,81.76825364586757,3.996189108270591e-10
247,88.57094236541987,8.271638599462194e-10
248,95.37363108497215,7.229710123387249e-10
249,102.17630619882047,4.666593981133667e-10
250,108.97899491837275,4.657217783514439e-10
251,115.78168363792504,4.880024145127725e-10
252,122.58435875177334,5.001933091632532e-10
253,129.38704747132562,5.302310118182291e-10
254,136.05367915111793,5.665035719541488e-10
255,136.1897361908779,5.673319664088943e-10
256,204.0805119238249,1.0175160486943992e-09
257,272.10735830223587,1.7722494441561621e-09
258,340.1341910749428,3.307836212592077e-09
259,408.1610238476498,4.887280946783844e-09
260,476.18787022606074,6.513422182632486e-09
261,544.2147029987677,8.061997247086406e-09
262,612.2415493771787,9.621932515378462e-09
263,680.2683821498856,1.1462861424021428e-08
264,748.2952149225927,1.318688253090248e-08
265,816.3220613010035,1.4789430460936158e-08
266,884.3488940737104,1.6281781763010465e-08
267,952.3757404521215,1.7678920699886294e-08
268,1020.4025732248285,1.8995497021560306e-08
269,1088.4294196032395,2.024435120690287e-08
270,1156.4562523759464,2.1436200475621605e-08
271,1224.4830851486533,2.2579792865850162e-08
272,1292.5099315270643,2.3682204166051792e-08
273,1360.5367642997712,2.4749147208407652e-08
274,1496.590443450889,2.6794268640401004e-08
275,1632.644122602007,2.8742861655778652e-08
276,1768.697801753125,3.061375024389909e-08
277,1904.7514672985392,3.2420124576458564e-08
278,2040.805146449657,3.417152018302998e-08
279,2176.8588256007747,3.58750365709887e-08
280,2312.912504751893,3.753610644088672e-08
281,2448.966183903011,3.915899100872875e-08
282,2585.0198630541286,4.0747107591727356e-08
283,2721.0735285995424,4.230325104754907e-08
284,2857.1272077506605,4.382974823555808e-08
285,2993.180886901778,4.5328565342450125e-08
286,3129.2345660528963,4.680138716727446e-08
287,3265.288245204014,4.824967459470308e-08
288,3401.3419107494283,4.967470756925773e-08
289,3537.3955899005464,5.1077618715934144e-08
290,3673.4492690516645,5.245941752568204e-08
291,3809.502948202782,5.3821011028887704e-08
292,3945.5566273539002,5.5163219298886755e-08
293,4081.610306505018,5.648678811911205e-08
294,4217.663972050432,5.7792399105260596e-08
295,4353.717651201549,5.908067878443302e-08
296,4489.771330352668,6.035220451733494e-08
297,4625.825009503786,6.160751103901672e-08
298,4761.878688654903,6.284709515794632e-08
299,4897.932354200318,6.407141976473322e-08
300,5033.986033351435,6.528091809477026e-08
301,5170.039712502553,6.647599565457445e-08
302,5306.0933916536715,6.765703367901768e-08
303,5442.147070804789,6.882439120531962e-08
304,5578.200749955907,6.997840702347106e-08
305,5714.254415501321,7.111940139677885e-08
306,5850.308094652439,7.224767819591201e-08
307,5986.361773803556,7.336352529063642e-08
308,6122.415452954675,7.446721651565655e-08
309,6258.469132105793,7.555901255149079e-08
310,6394.522797651206,7.663916170053655e-08
311,6530.576476802325,7.770790154918725e-08
312,6666.630155953442,7.876545867914024e-08
313,6802.68383510456,7.98120501125603e-08
314,6938.737514255678,8.084788374142683e-08
315,7074.791179801093,8.187315882443662e-08
316,7210.8448589522095,8.288806717404543e-08
317,7346.898538103329,8.38927926421077e-08
318,7482.952217254446,8.488751224992624e-08
319,7619.005896405564,8.587239643619965e-08
320,7755.059575556682,8.684760948158702e-08
321,7891.113241102096,8.781330963395128e-08
322,8027.166920253213,8.876965013119388e-08
323,8163.220599404332,8.971677849656738e-08
324,8299.27427855545,9.065483755602359e-08
325,8435.327957706568,9.158396541532727e-08
326,8571.38162325198,9.250429564115167e-08
327,8707.435302403099,9.341595801059464e-08
328,8843.488981554217,9.431907789957104e-08
329,8979.542660705336,9.521377702831187e-08
330,9115.596339856453,9.610017354943861e-08
331,9251.650019007571,9.697838210652734e-08
332,9387.703684552984,9.784851397235837e-08
333,9523.757363704102,9.871067772785815e-08
334,9659.81104285522,9.956497850397287e-08
335,9795.86472200634,1.0041151874909279e-07
336,9931.918401157456,1.0125039816304581e-07
337,10067.97206670287,1.0208171369831423e-07
338,10204.025745853987,1.02905560249598e-07
339,10340.079425005106,1.0372202986544569e-07
340,10476.133104156224,1.0453121243787943e-07
341,10612.186783307343,1.0533319567936743e-07
342,10748.24046245846,1.0612806512152472e-07
343,10884.294128003874,1.0691590420341806e-07
344,11020.34780715499,1.0769679476943074e-07
345,11156.40148630611,1.0847081638104134e-07
346,11292.455165457228,1.0923804690534126e-07
347,11428.508844608346,1.0999856251864779e-07
348,11564.562510153759,1.1075243752506811e-07
349,11700.616189304877,1.1149974504083208e-07
350,11836.669868455994,1.1224055621028319e-07
351,11972.723547607113,1.1297494081928886e-07
352,12108.777226758231,1.1370296714075358e-07
353,12244.83090590935,1.1442470213541541e-07
354,12380.884571454762,1.1514021120449181e-07
355,12516.938250605881,1.1584955882718831e-07
356,12652.991929756998,1.1655280789868482e-07
357,12789.045608908116,1.1725002011531603e-07
358,12925.099288059235,1.179412560373095e-07
359,13061.15295360465,1.1862657496241609e-07
360,13197.206632755768,1.193060354099692e-07
361,13333.260311906884,1.1997969449728954e-07
362,13469.313991058003,1.2064760833010744e-07
363,13605.36767020912,1.2130983212578505e-07
364,16326.441198808663,1.3343647210408605e-07
365,19047.514727408205,1.436668550999711e-07
366,21768.58826961345,1.522774349987518e-07
367,24489.661798212994,1.594848833900909e-07
368,27210.735326812537,1.6546509248109163e-07
369,29931.808869017783,1.7036452635615896e-07
370,32652.882397617326,1.7430747745185484e-07
371,35373.95592621687,1.774009596030657e-07
372,38095.029468422115,1.79738151898811e-07
373,40816.10299702166,1.814009105150481e-07
374,43537.1765392269,1.8246165761632387e-07
375,46258.25006782645,1.829848364822077e-07
376,48979.32359642599,1.830280592869158e-07
377,51700.39713863123,1.8264302789987332e-07
378,54421.47066723078,1.81876285676114e-07
379,57142.54419583032,1.8076984019042076e-07
380,59863.617738035566,1.793616852154037e-07
381,62584.691266635105,1.776863207647316e-07
382,65305.76479523465,1.7577533421383918e-07
383,68026.8383374399,1.7365781217951178e-07
384,70747.91186603945,1.7136094107871183e-07
385,73468.98539463898,1.6891075234203288e-07
386,76190.05893684423,1.6633310500658695e-07
387,78911.13246544376,1.6365492242210683e-07
388,81632.20599404332,1.609058281352157e-07
389,84353.27953624855,1.581203475050232e-07
390,87074.35306484811,1.5534015411691764e-07
391,89795.42659344764,1.5261751358299243e-07
392,92516.5001356529,1.5001429095438265e-07
393,95237.57366425243,1.475359350953957e-07
394,97958.64719285197,1.451681711370252e-07
395,100679.72073505721,1.4290319006148214e-07
396,103400.79426365678,1.4073392619616647e-07
397,106121.86779225631,1.3865396935487463e-07
398,108842.94133446156,1.366574890181001e-07
399,111564.0148630611,1.3473916889518648e-07
400,114285.08839166064,1.3289415052837662e-07
401,117006.16193386588,1.3111798388828429e-07
402,119727.23546246543,1.2940658461085908e-07
403,122448.30900467066,1.2775619646217627e-07
404,125169.38253327021,1.2616335828559028e-07
405,127890.45606186974,1.2462487513880627e-07
406,130611.529604075,1.2313779260620466e-07
407,133332.60313267456,1.2169937408598815e-07
408,136053.6766612741,1.2030708075841958e-07
409,138774.75020347934,1.1895855370125533e-07
410,141495.8237320789,1.1765159780142502e-07
411,144216.89726067844,1.1638416756804466e-07
412,146937.97080288368,1.1515435436500988e-07
413,149659.04433148322,1.1396037481751708e-07
414,156461.72816658777,1.1112150784881606e-07
415,163264.4120016923,1.0847311881895755e-07
416,170067.0958367969,1.0599525110219639e-07
417,176869.77965829574,1.0367073206801396e-07
418,183672.4634934003,1.0148469524765677e-07
419,190475.14732850486,9.942419878453152e-08
420,197277.83116360943,9.747791804340876e-08
421,204080.51499871397,9.563589591226379e-08
422,210883.19883381855,9.388933877099261e-08
423,217685.88266892312,9.22304480413825e-08
424,224488.56649042197,9.065228076874816e-08
425,231291.25032552652,8.914863315728993e-08
426,238093.93416063106,8.771394288505736e-08
427,244896.61799573564,8.634320672654219e-08
428,251699.30183084018,8.503191065411527e-08
429,258501.98566594475,8.37759703000398e-08
430,265304.6695010493,8.25716801253526e-08
431,272107.3533225482,8.141566954385645e-08
432,278910.0371576527,8.030486520615169e-08
433,285712.7209927573,7.923645833181572e-08
434,292515.4048278619,7.820787623712435e-08
435,299318.08866296645,7.721675757762557e-08
436,306120.77249807096,7.626093064051035e-08
437,312923.45633317553,7.533839429342403e-08
438,319726.1401682801,7.44473012842784e-08
439,326528.82398977893,7.358594335695557e-08
440,333331.50782488356,7.275273818895549e-08
441,340134.1916599881,7.19462177989641e-08
442,346936.87549509265,7.116501814870079e-08
443,353739.5593301972,7.040786993116649e-08
444,360542.24316530174,6.967359031986721e-08
445,367344.9270004063,6.896107557279013e-08
446,374147.6108219052,6.82692944359161e-08
447,380950.2946570097,6.759728210600583e-08
448,387752.9784921143,6.694413492307327e-08
