,E (eV),I (erg/s/cm**2)
0,1.360543186192048,0.00014256768866001404
1,2.0408011735840956,0.00017979317264115292
2,2.7210727666801198,0.0002003730710509542
3,3.401344359776144,0.00013388293709060131
4,4.081615952872168,0.00015291160102790834
5,4.761873940264215,0.00017391442899095601
6,5.4421455333602395,0.00020409086896036366
7,6.122417126456264,0.0002242110073521538
8,6.802688719552288,0.00025401507523108293
9,7.482946706944335,0.0002710311526882442
10,8.16321830004036,0.0003015787282307889
11,8.843489893136384,0.0003942667523718993
12,9.523761486232408,0.0010163145245352988
13,10.204019473624456,0.0002951845874969154
14,10.884291066720479,0.00030406427840555376
15,11.564562659816504,0.000268793602967574
16,12.244834252912527,0.00020570674229797363
17,12.92510584600855,0.00010741507836395228
18,13.7414208731606,4.328961464587481e-06
19,14.421692466256623,3.7371575929165035e-06
20,15.101964059352648,3.4454316058248782e-06
21,15.782222046744696,2.688121729931908e-06
22,16.46249363984072,3.0881023630708593e-06
23,17.142765232936743,3.098945003272158e-06
24,17.823036826032766,3.00193704671082e-06
25,18.503294813424816,2.9846114216220665e-06
26,19.18356640652084,2.9970040892498978e-06
27,19.863837999616862,2.955674606391298e-06
28,20.544109592712886,3.255053435888402e-06
29,21.224367580104932,3.243884100035798e-06
30,21.90463917320096,3.064516202936439e-06
31,22.584910766296982,3.0113096509038883e-06
32,23.26518235939301,3.747914671128199e-06
33,23.945440346785055,3.7867050407321407e-06
34,24.62571193988108,3.5941902721477388e-06
35,25.305983532977105,3.342639509921646e-06
36,25.986255126073125,3.5798015367816616e-06
37,26.66652671916915,3.2250681359443053e-06
38,27.210741272505174,3.2314854131959236e-06
39,27.3467847065612,3.3020725960671378e-06
40,27.4828417463212,3.100824832766293e-06
41,27.618898786081196,2.930198351776753e-06
42,27.7549558258412,3.2542248009365506e-06
43,27.89099925989722,3.01173139162668e-06
44,28.02705629965722,3.0682943548680965e-06
45,28.16311333941722,3.0883278793429066e-06
46,28.299170379177223,3.3276193268566672e-06
47,28.435213813233247,3.1247170232259024e-06
48,28.571270852993244,3.377455007379172e-06
49,28.70732789275325,3.34162608131754e-06
50,28.843384932513246,3.3321420518553885e-06
51,28.97942836656927,3.3439850515864773e-06
52,29.115485406329267,3.2532792282287534e-06
53,29.25154244608927,3.3547475730141708e-06
54,29.387599485849268,3.1842617480482537e-06
55,29.523642919905292,2.8926345864617384e-06
56,29.659699959665296,3.1341479307540734e-06
57,29.795756999425294,3.0988987637010646e-06
58,29.931814039185298,3.1935790239897796e-06
59,30.067857473241315,3.2384712118032768e-06
60,30.20391451300132,2.9312413172841675e-06
61,30.339971552761316,2.997072219804662e-06
62,30.47602859252132,3.253160294291922e-06
63,30.612072026577344,2.890877632815629e-06
64,30.74812906633734,2.822210931324885e-06
65,30.884186106097346,2.930840132949039e-06
66,31.020243145857343,2.8261011269796893e-06
67,31.156286579913367,2.7533138658893924e-06
68,31.292343619673364,2.6313487504700755e-06
69,31.42840065943337,2.4662452315442196e-06
70,31.564457699193365,2.730909854762489e-06
71,31.70050113324939,2.666976936937544e-06
72,31.836558173009394,2.2688467335748192e-06
73,31.97261521276939,2.566431087725266e-06
74,32.108672252529395,2.4258618638759064e-06
75,32.244715686585415,2.262303781694389e-06
76,32.38077272634541,2.414376232863376e-06
77,32.51682976610541,2.2220527321699427e-06
78,32.652886805865414,2.3867581358005097e-06
79,32.78893023992144,2.4696506834674895e-06
80,32.92498727968144,2.415887902900335e-06
81,33.06104431944144,2.630942078615041e-06
82,33.19710135920144,2.6219525999834672e-06
83,33.33314479325746,2.5785897668971024e-06
84,33.46920183301746,2.7124158670032227e-06
85,33.60525887277746,2.4750510268733535e-06
86,33.74131591253746,2.5508839838046292e-06
87,33.87735934659349,2.298121209849172e-06
88,34.01341638635349,2.280515199272908e-06
89,34.14947342611349,2.3886211245577295e-06
90,34.285530465873485,2.253228261874948e-06
91,34.421573899929506,2.5500867314348678e-06
92,34.55763093968951,2.235728630973174e-06
93,34.69368797944951,2.277667098423374e-06
94,34.82974501920951,2.2889798154447615e-06
95,34.96578845326554,2.3522092177449553e-06
96,35.101845493025536,2.457806334453397e-06
97,35.23790253278553,2.576810516745712e-06
98,35.37395957254554,2.4892850133622156e-06
99,35.51000300660156,2.599614201355019e-06
100,35.646060046361555,2.7899136791054814e-06
101,35.78211708612156,2.7277971732583914e-06
102,35.918174125881556,2.8904232032981254e-06
103,36.054217559937584,2.679005924097222e-06
104,36.19027459969758,3.088197751488823e-06
105,36.326331639457585,3.0540852843104694e-06
106,36.46238867921758,2.8812081457300774e-06
107,36.59844571897758,3.1168170158239657e-06
108,36.73448915303361,2.9464468285544063e-06
109,36.870546192793604,3.275049089036013e-06
110,37.00660323255361,3.0942398888876243e-06
111,37.142660272313606,3.49133668732587e-06
112,37.27870370636963,3.5653065343670556e-06
113,37.41476074612963,3.4779473145400933e-06
114,37.55081778588963,4.0421141665320135e-06
115,37.686874825649625,3.863471628212143e-06
116,37.82291825970565,4.1701378061982085e-06
117,37.958975299465656,4.2118667241849575e-06
118,38.095032339225654,4.169154827875283e-06
119,38.23108937898566,4.454428711126019e-06
120,38.36713281304168,4.505908977043241e-06
121,38.503189852801675,4.643208189834313e-06
122,38.63924689256167,4.953390370417666e-06
123,38.77530393232168,5.010114892280817e-06
124,38.911347366377704,5.494179563120596e-06
125,39.0474044061377,5.532372725424596e-06
126,39.183461445897706,6.172381177420039e-06
127,39.3195184856577,6.832062369723831e-06
128,39.45556191971372,7.0025435706710455e-06
129,39.59161895947372,7.603670894613195e-06
130,39.727675999233725,7.915186123549744e-06
131,39.86373303899372,8.78309437887944e-06
132,39.99977647304975,8.960553001723783e-06
133,40.135833512809754,9.945176231394433e-06
134,40.27189055256975,9.94510070162916e-06
135,40.407947592329755,1.1305767239513446e-05
136,40.54399102638577,1.1299130167534764e-05
137,40.68004806614577,1.2883143926456026e-05
138,40.81610510590577,1.2594241816560343e-05
139,40.952162145665774,1.9143767215937637e-06
140,41.0882055797218,1.8740335172684151e-06
141,41.2242626194818,2.0064529222400045e-06
142,41.3603196592418,1.914293935651326e-06
143,41.4963766990018,1.949968207337754e-06
144,41.63242013305782,1.853627175959766e-06
145,41.76847717281782,1.87515327109832e-06
146,41.90453421257782,1.717902644644869e-06
147,42.04059125233782,1.7491442569633142e-06
148,42.17663468639385,1.7549524309296502e-06
149,42.31269172615385,1.8207825691727725e-06
150,42.44874876591385,1.7918879942386158e-06
151,42.584805805673845,1.947303293809786e-06
152,42.720849239729866,1.8990741497502525e-06
153,42.85690627948987,2.0007321842274593e-06
154,42.99296331924987,2.0322647631322064e-06
155,43.12902035900987,1.956531433919519e-06
156,43.2650637930659,2.053704784726914e-06
157,43.401120832825896,1.9090825510635965e-06
158,43.53717787258589,2.040744957162667e-06
159,43.67323491234589,1.919610378393438e-06
160,43.80927834640192,1.9652432138366604e-06
161,43.945335386161915,1.8785104313257288e-06
162,44.08139242592192,1.8755134539939056e-06
163,44.217449465681916,1.7600003524207379e-06
164,44.353492899737944,1.7458181850251813e-06
165,44.48954993949794,1.6167499937084053e-06
166,44.62560697925794,1.7038602067021913e-06
167,44.761664019017935,1.6873927465740536e-06
168,44.89770745307396,1.7486774177523304e-06
169,45.03376449283397,1.6845425162727884e-06
170,45.169821532593964,1.5586645459724845e-06
171,45.30587857235397,1.4842273174598212e-06
172,45.44192200640999,1.2826224449585814e-06
173,45.577979046169986,1.2543512710509026e-06
174,45.71403608592998,1.1610184439640091e-06
175,45.85009312568999,1.108006988773982e-06
176,45.986136559746015,1.1249177133406432e-06
177,46.12219359950601,1.0764813845954472e-06
178,46.258250639266016,1.0136433560679412e-06
179,46.394307679026014,9.706248736812076e-07
180,46.53035111308204,9.966284209013103e-07
181,46.66640815284203,9.491359278780562e-07
182,46.802465192602035,9.201937571842549e-07
183,46.93852223236203,9.220309519923703e-07
184,47.07456566641806,9.07614397968384e-07
185,47.210622706178064,8.650484502451544e-07
186,47.34667974593806,7.613051624984312e-07
187,47.482736785698066,6.94441256275478e-07
188,47.618780219754086,6.949365536329274e-07
189,47.75483725951408,5.232981666634168e-07
190,47.89089429927408,4.954845717697601e-07
191,48.026951339034085,4.2644762311911905e-07
192,48.16299477309011,3.2112633202773424e-07
193,48.29905181285011,2.8614550006542073e-07
194,48.43506041766452,8.737080562072203e-07
195,48.43515728755569,8.737098036191897e-07
196,48.57116589237011,9.990533705362525e-07
197,48.707222932130115,9.391944044703123e-07
198,48.84326636618613,9.800061165235037e-07
199,48.97932340594613,8.074120480171117e-07
200,49.11538044570613,7.655284391557043e-07
201,49.251437485466134,6.974227410887719e-07
202,49.38748091952216,5.78289977410009e-07
203,49.52353795928216,5.225223204469681e-07
204,49.65959499904216,5.268418436247078e-07
205,49.79565203880216,4.306728922757209e-07
206,49.93169547285818,3.806224236689413e-07
207,50.06775251261818,3.2618622133518204e-07
208,50.20380955237818,2.906261477981706e-07
209,50.33986659213818,3.716116278866817e-07
210,50.47591002619421,2.5203469561541555e-07
211,50.61196706595421,2.394288306566445e-07
212,50.74802410571421,1.0485507234137044e-07
213,50.884081145474205,1.215707127330161e-07
214,51.02007355950089,1.6856108316072827e-07
215,51.02017559955957,1.6856142024378904e-07
216,51.15618161929023,3.262786000965864e-07
217,51.29223865905023,2.1417377978266105e-07
218,51.42829569881023,2.6782185474826814e-07
219,51.56433913286626,2.1649056639877005e-07
220,51.700396172626256,1.0751674478741347e-07
221,51.83645321238625,1.326056587451227e-07
222,51.97251025214625,8.313600094776002e-08
223,52.10855368620228,5.164583749319093e-08
224,52.24455848141958,3.825703016066684e-08
225,52.244662970504976,3.8257106674704045e-08
226,52.38066776572228,9.847117537118986e-08
227,52.516724805482276,1.3364627300931425e-07
228,52.652768239538304,7.2727674200484e-08
229,52.7888252792983,3.175149056093375e-08
230,52.92482939423041,1.8841102721606908e-07
231,52.924935243886196,1.884114040381128e-07
232,53.060939358818295,2.16437696072603e-07
233,53.19698279287432,2.0293383860240118e-07
234,53.33303983263433,1.936181115694431e-07
235,53.469096872394324,2.3701170416708002e-07
236,53.60515391215433,1.830889256695979e-07
237,53.74119734621035,2.1738030303909639e-07
238,53.877254385970346,2.0539671291995754e-07
239,54.01331142573034,2.0311634719428013e-07
240,54.14936846549035,2.7604408689799074e-07
241,54.285411899546375,1.5300697369476903e-07
242,54.55752597906638,3.3591523485155654e-08
243,61.36021469861866,1.4715153442008647e-09
244,68.16288981246697,4.0372837401641226e-10
245,74.96557853201926,5.779734165669793e-10
246,81.76825364586757,1.878219174497e-10
247,88.57094236541987,5.328882634601079e-10
248,95.37363108497215,4.36105239071579e-10
249,102.17630619882047,2.1283784365505042e-10
250,108.97899491837275,1.9992072705980783e-10
251,115.78168363792504,2.059695957825055e-10
252,122.58435875177334,2.0193670071817926e-10
253,129.38704747132562,2.1266040659190833e-10
254,136.05367915111793,2.2783324869604893e-10
255,136.1897361908779,2.2821864927533604e-10
256,204.0805119238249,4.1408469204769087e-10
257,272.10735830223587,7.212090256540421e-10
258,340.1341910749428,1.3562999199921472e-09
259,408.1610238476498,2.0518314069838036e-09
260,476.18787022606074,2.762425666363617e-09
261,544.2147029987677,3.448219341359964e-09
262,612.2415493771787,4.132216798595383e-09
263,680.2683821498856,4.936103397831063e-09
264,748.2952149225927,5.685865294763265e-09
265,816.3220613010035,6.380535001308319e-09
266,884.3488940737104,7.025954472342864e-09
267,952.3757404521215,7.629282319817061e-09
268,1020.4025732248285,8.197280421407738e-09
269,1088.4294196032395,8.735755244503876e-09
270,1156.4562523759464,9.249486926847853e-09
271,1224.4830851486533,9.742339356213712e-09
272,1292.5099315270643,1.021741543839032e-08
273,1360.5367642997712,1.067720691765316e-08
274,1496.590443450889,1.1558593352432197e-08
275,1632.644122602007,1.2398486644876685e-08
276,1768.697801753125,1.320499889722894e-08
277,1904.7514672985392,1.3983800572508822e-08
278,2040.805146449657,1.4738985276573233e-08
279,2176.8588256007747,1.547359858609744e-08
280,2312.912504751893,1.6189970326424804e-08
281,2448.966183903011,1.68899278596464e-08
282,2585.0198630541286,1.7574936827751916e-08
283,2721.0735285995424,1.824619620157942e-08
284,2857.1272077506605,1.8904704462082037e-08
285,2993.180886901778,1.955130557717196e-08
286,3129.2345660528963,2.0186722957777626e-08
287,3265.288245204014,2.0811584060689683e-08
288,3401.3419107494283,2.1426438779746652e-08
289,3537.3955899005464,2.2031773847139242e-08
290,3673.4492690516645,2.2628023180434386e-08
291,3809.502948202782,2.3215576735048602e-08
292,3945.5566273539002,2.3794787143137302e-08
293,4081.610306505018,2.4365975165600897e-08
294,4217.663972050432,2.492943397823157e-08
295,4353.717651201549,2.5485433131015498e-08
296,4489.771330352668,2.6034221021056393e-08
297,4625.825009503786,2.657602773412154e-08
298,4761.878688654903,2.7111067067031208e-08
299,4897.932354200318,2.7639538224114528e-08
300,5033.986033351435,2.8161627650191104e-08
301,5170.039712502553,2.8677509900286193e-08
302,5306.0933916536715,2.918734905885293e-08
303,5442.147070804789,2.9691299649382147e-08
304,5578.200749955907,3.018950752682565e-08
305,5714.254415501321,3.0682110534259565e-08
306,5850.308094652439,3.116923948690695e-08
307,5986.361773803556,3.165101830852534e-08
308,6122.415452954675,3.2127564865679605e-08
309,6258.469132105793,3.259899137767272e-08
310,6394.522797651206,3.306540474577961e-08
311,6530.576476802325,3.35269072254772e-08
312,6666.630155953442,3.398359637057651e-08
313,6802.68383510456,3.443556559630099e-08
314,6938.737514255678,3.488290438742893e-08
315,7074.791179801093,3.532569853746134e-08
316,7210.8448589522095,3.576403059679452e-08
317,7346.898538103329,3.619797970697358e-08
318,7482.952217254446,3.662762206434344e-08
319,7619.005896405564,3.7053031043963936e-08
320,7755.059575556682,3.7474277340505214e-08
321,7891.113241102096,3.7891429081785676e-08
322,8027.166920253213,3.830455221900279e-08
323,8163.220599404332,3.8713710257251416e-08
324,8299.27427855545,3.911896465029757e-08
325,8435.327957706568,3.9520374843806426e-08
326,8571.38162325198,3.9917998318008236e-08
327,8707.435302403099,4.031189094770451e-08
328,8843.488981554217,4.070210666462701e-08
329,8979.542660705336,4.1088697871413193e-08
330,9115.596339856453,4.147171539581558e-08
331,9251.650019007571,4.1851208591217485e-08
332,9387.703684552984,4.2227225329898204e-08
333,9523.757363704102,4.259981232408218e-08
334,9659.81104285522,4.2969014838279024e-08
335,9795.86472200634,4.3334876942263496e-08
336,9931.918401157456,4.369744153114533e-08
337,10067.97206670287,4.405675033639286e-08
338,10204.025745853987,4.4412844162838986e-08
339,10340.079425005106,4.476576263950705e-08
340,10476.133104156224,4.511554443610662e-08
341,10612.186783307343,4.546222727276398e-08
342,10748.24046245846,4.580584797174857e-08
343,10884.294128003874,4.6146442412109643e-08
344,11020.34780715499,4.648404581786166e-08
345,11156.40148630611,4.681869239737569e-08
346,11292.455165457228,4.7150415672190066e-08
347,11428.508844608346,4.747924839258662e-08
348,11564.562510153759,4.780522252376589e-08
349,11700.616189304877,4.8128369530861595e-08
350,11836.669868455994,4.844871999623468e-08
351,11972.723547607113,4.876630395047607e-08
352,12108.777226758231,4.9081150772878134e-08
353,12244.83090590935,4.9393289232575164e-08
354,12380.884571454762,4.970274748329852e-08
355,12516.938250605881,5.000955325971416e-08
356,12652.991929756998,5.0313733590906086e-08
357,12789.045608908116,5.061531503584223e-08
358,12925.099288059235,5.091432362975472e-08
359,13061.15295360465,5.1210784863893825e-08
360,13197.206632755768,5.1504723930046654e-08
361,13333.260311906884,5.1796165368834474e-08
362,13469.313991058003,5.208513332083449e-08
363,13605.36767020912,5.2371651520455773e-08
364,16326.441198808663,5.762070962830382e-08
365,19047.514727408205,6.205314794319098e-08
366,21768.58826961345,6.578779941984761e-08
367,24489.661798212994,6.891778311215794e-08
368,27210.735326812537,7.151868549475813e-08
369,29931.808869017783,7.365344608905569e-08
370,32652.882397617326,7.537547956655916e-08
371,35373.95592621687,7.673078021137962e-08
372,38095.029468422115,7.775940254482633e-08
373,40816.10299702166,7.849654085578901e-08
374,43537.1765392269,7.897334065213713e-08
375,46258.25006782645,7.921752359394215e-08
376,48979.32359642599,7.925388017616958e-08
377,51700.39713863123,7.91046649261972e-08
378,54421.47066723078,7.87899189361475e-08
379,57142.54419583032,7.832773697252347e-08
380,59863.617738035566,7.773449120773371e-08
381,62584.691266635105,7.702502094775077e-08
382,65305.76479523465,7.621279682289481e-08
383,68026.8383374399,7.531020711485027e-08
384,70747.91186603945,7.432884407919694e-08
385,73468.98539463898,7.32797084882588e-08
386,76190.05893684423,7.217361866487739e-08
387,78911.13246544376,7.102178159699225e-08
388,81632.20599404332,6.983656980361895e-08
389,84353.27953624855,6.863256926384277e-08
390,87074.35306484811,6.742791210046505e-08
391,89795.42659344764,6.624609346944712e-08
392,92516.5001356529,6.511583764130524e-08
393,95237.57366425243,6.403995773491959e-08
394,97958.64719285197,6.301208715351141e-08
395,100679.72073505721,6.202883583628291e-08
396,103400.79426365678,6.108713650269058e-08
397,106121.86779225631,6.018420643647639e-08
398,108842.94133446156,5.931751450274095e-08
399,111564.0148630611,5.848475286621021e-08
400,114285.08839166064,5.76838123585542e-08
401,117006.16193386588,5.6912761220605464e-08
402,119727.23546246543,5.616982633761047e-08
403,122448.30900467066,5.5453377091498476e-08
404,125169.38253327021,5.476191097129514e-08
405,127890.45606186974,5.4094040980581926e-08
406,130611.529604075,5.3448484600188335e-08
407,133332.60313267456,5.282405381525615e-08
408,136053.6766612741,5.221964651845163e-08
409,138774.75020347934,5.163423864831325e-08
410,141495.8237320789,5.106687729026587e-08
411,144216.89726067844,5.051667445785674e-08
412,146937.97080288368,4.998280160918014e-08
413,149659.04433148322,4.9464484543950286e-08
414,156461.72816658777,4.82321076838551e-08
415,163264.4120016923,4.70824193847468e-08
416,170067.0958367969,4.6006756253782775e-08
417,176869.77965829574,4.499766343259924e-08
418,183672.4634934003,4.404868723070996e-08
419,190475.14732850486,4.315420942896996e-08
420,197277.83116360943,4.230931386128069e-08
421,204080.51499871397,4.1509678047866575e-08
422,210883.19883381855,4.0751484565101486e-08
423,217685.88266892312,4.003134796908411e-08
424,224488.56649042197,3.934625424435122e-08
425,231291.25032552652,3.8693510237674326e-08
426,238093.93416063106,3.8070701306270045e-08
427,244896.61799573564,3.747565548519908e-08
428,251699.30183084018,3.6906413172045046e-08
429,258501.98566594475,3.636120132331144e-08
430,265304.6695010493,3.583841130305995e-08
431,272107.3533225482,3.533657990452183e-08
432,278910.0371576527,3.4854372975862114e-08
433,285712.7209927573,3.439057117418648e-08
434,292515.4048278619,3.39440576709916e-08
435,299318.08866296645,3.3513807395712544e-08
436,306120.77249807096,3.309887756581513e-08
437,312923.45633317553,3.26983994939249e-08
438,319726.1401682801,3.231157123884532e-08
439,326528.82398977893,3.1937651250406486e-08
440,333331.50782488356,3.157595262340627e-08
441,340134.1916599881,3.1225838088230736e-08
442,346936.87549509265,3.088671550416323e-08
443,353739.5593301972,3.0558033846136074e-08
444,360542.24316530174,3.023927964436655e-08
445,367344.9270004063,2.992997375236974e-08
446,374147.6108219052,2.962966849746562e-08
447,380950.2946570097,2.933794503945523e-08
