,E (eV),I (erg/s/cm**2)
0,1.360543186192048,0.00016872527621287107
1,2.0408011735840956,0.0002125562688394062
2,2.7210727666801198,0.00023690486684334073
3,3.401344359776144,0.00015888216179914236
4,4.081615952872168,0.00018263560248030794
5,4.761873940264215,0.00020862288606558513
6,5.4421455333602395,0.0002430767255983642
7,6.122417126456264,0.0002716917646859642
8,6.802688719552288,0.0002947430727450318
9,7.482946706944335,0.00032423702941078496
10,8.16321830004036,0.0003506706408621233
11,8.843489893136384,0.0007735841554393116
12,9.523761486232408,0.0011073482679478325
13,10.204019473624456,0.00033838533175283914
14,10.884291066720479,0.00034089820719217364
15,11.564562659816504,0.000300223245786642
16,12.244834252912527,0.00020606547133062285
17,12.92510584600855,0.00010882973679191881
18,13.7414208731606,4.688642384069286e-06
19,14.421692466256623,4.069092602944684e-06
20,15.101964059352648,3.754097017915517e-06
21,15.782222046744696,2.949880280400377e-06
22,16.46249363984072,3.3728262389246693e-06
23,17.142765232936743,3.3774298012208245e-06
24,17.823036826032766,3.3092185289572034e-06
25,18.503294813424816,3.2943705174470198e-06
26,19.18356640652084,3.2499027953489234e-06
27,19.863837999616862,3.128110931697385e-06
28,20.544109592712886,3.535514753463151e-06
29,21.224367580104932,3.546435054865209e-06
30,21.90463917320096,3.2774453981501373e-06
31,22.584910766296982,3.287150024605921e-06
32,23.26518235939301,3.997134281021327e-06
33,23.945440346785055,4.090982075648217e-06
34,24.62571193988108,3.881143729933119e-06
35,25.305983532977105,3.611567749576023e-06
36,25.986255126073125,3.817298976295876e-06
37,26.66652671916915,3.460172068811004e-06
38,27.210741272505174,3.465216330865713e-06
39,27.3467847065612,3.54838199164457e-06
40,27.4828417463212,3.3622256058375807e-06
41,27.618898786081196,3.142935711347823e-06
42,27.7549558258412,3.549106627652448e-06
43,27.89099925989722,3.2139552253853447e-06
44,28.02705629965722,3.2679892581478704e-06
45,28.16311333941722,3.324924402523354e-06
46,28.299170379177223,3.606074098106883e-06
47,28.435213813233247,3.3552555979642484e-06
48,28.571270852993244,3.611319309151205e-06
49,28.70732789275325,3.5592692095866406e-06
50,28.843384932513246,3.541319869458731e-06
51,28.97942836656927,3.6215166712772123e-06
52,29.115485406329267,3.4839216306971455e-06
53,29.25154244608927,3.592757242001723e-06
54,29.387599485849268,3.3944238574549987e-06
55,29.523642919905292,3.131891074665342e-06
56,29.659699959665296,3.404227002002354e-06
57,29.795756999425294,3.2857423666707047e-06
58,29.931814039185298,3.373164746465166e-06
59,30.067857473241315,3.490179489270593e-06
60,30.20391451300132,3.142369584525335e-06
61,30.339971552761316,3.1718727099344256e-06
62,30.47602859252132,3.4904475492831183e-06
63,30.612072026577344,3.0919573566277104e-06
64,30.74812906633734,3.0084775947689123e-06
65,30.884186106097346,3.1730333886486772e-06
66,31.020243145857343,2.9548571704597633e-06
67,31.156286579913367,2.911103465789425e-06
68,31.292343619673364,2.894179052698702e-06
69,31.42840065943337,2.5959487339626543e-06
70,31.564457699193365,2.8704224558827344e-06
71,31.70050113324939,2.932044825566585e-06
72,31.836558173009394,2.398950521266607e-06
73,31.97261521276939,2.74938165364571e-06
74,32.108672252529395,2.6628149676797417e-06
75,32.244715686585415,2.3675962829958895e-06
76,32.38077272634541,2.6143212858699754e-06
77,32.51682976610541,2.43909013338057e-06
78,32.652886805865414,2.5426572188000724e-06
79,32.78893023992144,2.6653653864131276e-06
80,32.92498727968144,2.5832132395412663e-06
81,33.06104431944144,2.822395041725566e-06
82,33.19710135920144,2.7934094446954824e-06
83,33.33314479325746,2.736008649051253e-06
84,33.46920183301746,2.9537940568135493e-06
85,33.60525887277746,2.605774818073903e-06
86,33.74131591253746,2.7575605870347097e-06
87,33.87735934659349,2.5016157916267613e-06
88,34.01341638635349,2.3938114590363877e-06
89,34.14947342611349,2.6058553702827345e-06
90,34.285530465873485,2.4046726561017087e-06
91,34.421573899929506,2.7287956196019638e-06
92,34.55763093968951,2.464032783114785e-06
93,34.69368797944951,2.510356041441662e-06
94,34.82974501920951,2.524556981874208e-06
95,34.96578845326554,2.657919431704871e-06
96,35.101845493025536,2.6974021162105083e-06
97,35.23790253278553,2.879461384346599e-06
98,35.37395957254554,2.8464806957999148e-06
99,35.51000300660156,2.832517670047732e-06
100,35.646060046361555,3.1066790743851712e-06
101,35.78211708612156,2.8949522508524163e-06
102,35.918174125881556,3.1516943911798513e-06
103,36.054217559937584,2.8908813241188994e-06
104,36.19027459969758,3.186829470019002e-06
105,36.326331639457585,3.3720725634876123e-06
106,36.46238867921758,2.994458492668721e-06
107,36.59844571897758,3.3815349766348486e-06
108,36.73448915303361,3.240147307995205e-06
109,36.870546192793604,3.4469632773859453e-06
110,37.00660323255361,3.5128945105135362e-06
111,37.142660272313606,3.649933645899013e-06
112,37.27870370636963,3.9032131812545466e-06
113,37.41476074612963,3.834579979199061e-06
114,37.55081778588963,4.285569131309824e-06
115,37.686874825649625,4.187705970040134e-06
116,37.82291825970565,4.3701534508860265e-06
117,37.958975299465656,4.524851584492965e-06
118,38.095032339225654,4.634719958567293e-06
119,38.23108937898566,4.748913826351994e-06
120,38.36713281304168,4.761873973319594e-06
121,38.503189852801675,4.849905619345663e-06
122,38.63924689256167,5.263026630624061e-06
123,38.77530393232168,5.177961683312328e-06
124,38.911347366377704,5.752886264187792e-06
125,39.0474044061377,6.260670228712551e-06
126,39.183461445897706,6.385815844628543e-06
127,39.3195184856577,6.9993678292566725e-06
128,39.45556191971372,7.175344690715198e-06
129,39.59161895947372,7.719671762237532e-06
130,39.727675999233725,8.027395174251303e-06
131,39.86373303899372,8.879122329523787e-06
132,39.99977647304975,9.039496037651254e-06
133,40.135833512809754,9.967404839062026e-06
134,40.27189055256975,9.981126187537195e-06
135,40.407947592329755,1.1251355062384872e-05
136,40.54399102638577,1.1252633410375875e-05
137,40.68004806614577,1.2744563244785255e-05
138,40.81610510590577,1.2421830513957148e-05
139,40.952162145665774,2.0638786245478874e-06
140,41.0882055797218,1.969333205001977e-06
141,41.2242626194818,2.1694605761802785e-06
142,41.3603196592418,1.9980289540491325e-06
143,41.4963766990018,2.131113731499599e-06
144,41.63242013305782,1.9211497149960814e-06
145,41.76847717281782,2.0602252100554357e-06
146,41.90453421257782,1.7829440181173462e-06
147,42.04059125233782,1.922454054289999e-06
148,42.17663468639385,1.8334662418006818e-06
149,42.31269172615385,1.984270564483643e-06
150,42.44874876591385,1.8793846632930494e-06
151,42.584805805673845,2.0949097298200796e-06
152,42.720849239729866,2.000902677113321e-06
153,42.85690627948987,2.1294596557901835e-06
154,42.99296331924987,2.1450914275911535e-06
155,43.12902035900987,2.0736006294923625e-06
156,43.2650637930659,2.164352698921845e-06
157,43.401120832825896,2.0130905512709027e-06
158,43.53717787258589,2.1485692495799586e-06
159,43.67323491234589,2.0187779656014726e-06
160,43.80927834640192,2.068217265930071e-06
161,43.945335386161915,1.9728513776209157e-06
162,44.08139242592192,1.9726292104256047e-06
163,44.217449465681916,1.8451524324293982e-06
164,44.353492899737944,1.838780741605473e-06
165,44.48954993949794,1.6908108623739786e-06
166,44.62560697925794,1.7943560026988608e-06
167,44.761664019017935,1.7574591919027946e-06
168,44.89770745307396,1.8258075113983223e-06
169,45.03376449283397,1.7569177347887868e-06
170,45.169821532593964,1.6176784687148437e-06
171,45.30587857235397,1.552350569009675e-06
172,45.44192200640999,1.318024839301615e-06
173,45.577979046169986,1.3153692757124995e-06
174,45.71403608592998,1.1990182531816245e-06
175,45.85009312568999,1.1657550600550668e-06
176,45.986136559746015,1.1562630524048706e-06
177,46.12219359950601,1.13449574962761e-06
178,46.258250639266016,1.0174716762346283e-06
179,46.394307679026014,1.0142349731782948e-06
180,46.53035111308204,1.0458400930429406e-06
181,46.66640815284203,9.928958017222086e-07
182,46.802465192602035,9.54471363639094e-07
183,46.93852223236203,9.622248362104984e-07
184,47.07456566641806,9.261130070451536e-07
185,47.210622706178064,9.081151639837612e-07
186,47.34667974593806,7.668414498060268e-07
187,47.482736785698066,7.325010334814531e-07
188,47.618780219754086,7.308669027726464e-07
189,47.75483725951408,4.224243666723532e-07
190,47.89089429927408,5.210231154498616e-07
191,48.026951339034085,4.318955755409207e-07
192,48.16299477309011,3.332132217043424e-07
193,48.29905181285011,2.9702415967166684e-07
194,48.43506041766452,9.234959845651364e-07
195,48.43515728755569,9.234978315527266e-07
196,48.57116589237011,1.0272186326561745e-06
197,48.707222932130115,9.775503057197345e-07
198,48.84326636618613,1.0186587229297468e-06
199,48.97932340594613,8.397980161371533e-07
200,49.11538044570613,7.416463567497084e-07
201,49.251437485466134,7.378359275204838e-07
202,49.38748091952216,6.177326937086253e-07
203,49.52353795928216,5.392315393631784e-07
204,49.65959499904216,5.605107057723423e-07
205,49.79565203880216,4.438412755881147e-07
206,49.93169547285818,4.0404987138917355e-07
207,50.06775251261818,3.439128102422089e-07
208,50.20380955237818,3.059486538948151e-07
209,50.33986659213818,3.917190070782401e-07
210,50.47591002619421,2.6193986398725307e-07
211,50.61196706595421,2.5253249252270396e-07
212,50.74802410571421,1.0943202080515939e-07
213,50.884081145474205,1.267203777725235e-07
214,51.02007355950089,1.7532623887374184e-07
215,51.02017559955957,1.753265895259157e-07
216,51.15618161929023,3.3928760311632203e-07
217,51.29223865905023,2.1624305583735517e-07
218,51.42829569881023,2.8040396379900176e-07
219,51.56433913286626,2.2366367509827334e-07
220,51.700396172626256,1.1125343181506485e-07
221,51.83645321238625,1.3826773016422508e-07
222,51.97251025214625,8.69390577367139e-08
223,52.10855368620228,5.436170569981098e-08
224,52.24455848141958,4.0508803399531315e-08
225,52.244662970504976,4.050888441711364e-08
226,52.38066776572228,1.0080676448836877e-07
227,52.516724805482276,1.3972074321215415e-07
228,52.652768239538304,7.618907537586247e-08
229,52.7888252792983,3.380089514407383e-08
230,52.92482939423041,1.976245715755735e-07
231,52.924935243886196,1.976249668247054e-07
232,53.060939358818295,2.3033442035011982e-07
233,53.19698279287432,1.9857467958702625e-07
234,53.33303983263433,2.0498952040744123e-07
235,53.469096872394324,2.3646883277496992e-07
236,53.60515391215433,1.8751987046137824e-07
237,53.74119734621035,2.3434428148519814e-07
238,53.877254385970346,2.0700409643295191e-07
239,54.01331142573034,2.0428194165020123e-07
240,54.14936846549035,2.8589049460683766e-07
241,54.285411899546375,1.5869348882909422e-07
242,54.55752597906638,3.4223062480207986e-08
243,61.36021469861866,1.5952934650512244e-09
244,68.16288981246697,4.690687398087424e-10
245,74.96557853201926,6.586372206448283e-10
246,81.76825364586757,2.428343612127053e-10
247,88.57094236541987,6.13643522250006e-10
248,95.37363108497215,5.135605762842962e-10
249,102.17630619882047,2.787310941859861e-10
250,108.97899491837275,2.686301391451903e-10
251,115.78168363792504,2.7882400610290486e-10
252,122.58435875177334,2.788100008145444e-10
253,129.38704747132562,2.945249950633014e-10
254,136.05367915111793,3.1520516003381467e-10
255,136.1897361908779,3.1570727745228394e-10
256,204.0805119238249,5.705488851911068e-10
257,272.10735830223587,9.945354162093454e-10
258,340.1341910749428,1.8653754172372472e-09
259,408.1610238476498,2.7978373072164902e-09
260,476.18787022606074,3.750201763407387e-09
261,544.2147029987677,4.6673245974091725e-09
262,612.2415493771787,5.587161335772855e-09
263,680.2683821498856,6.6723714896737786e-09
264,748.2952149225927,7.687291005951313e-09
265,816.3220613010035,8.62936375563655e-09
266,884.3488940737104,9.505605150926654e-09
267,952.3757404521215,1.0325172607550942e-08
268,1020.4025732248285,1.109693211727713e-08
269,1088.4294196032395,1.1828602890387151e-08
270,1156.4562523759464,1.2526596309954863e-08
271,1224.4830851486533,1.319612643416909e-08
272,1292.5099315270643,1.3841398605925078e-08
273,1360.5367642997712,1.4465800529317972e-08
274,1496.590443450889,1.5662432163624984e-08
275,1632.644122602007,1.6802390869205337e-08
276,1768.697801753125,1.7896775648522593e-08
277,1904.7514672985392,1.895335201572836e-08
278,2040.805146449657,1.9977727552654363e-08
279,2176.8588256007747,2.0974073634315343e-08
280,2312.912504751893,2.194558003316619e-08
281,2448.966183903011,2.2894747243828634e-08
282,2585.0198630541286,2.382357953391644e-08
283,2721.0735285995424,2.473371543313095e-08
284,2857.1272077506605,2.5626518573981253e-08
285,2993.180886901778,2.650314085360023e-08
286,3129.2345660528963,2.7364569028153273e-08
287,3265.288245204014,2.821165850129016e-08
288,3401.3419107494283,2.904515856439053e-08
289,3537.3955899005464,2.986573211888619e-08
290,3673.4492690516645,3.067396992078014e-08
291,3809.502948202782,3.1470402641279584e-08
292,3945.5566273539002,3.225551003981865e-08
293,4081.610306505018,3.302972834541654e-08
294,4217.663972050432,3.379345619950211e-08
295,4353.717651201549,3.4547059997737394e-08
296,4489.771330352668,3.5290877345473345e-08
297,4625.825009503786,3.602522089331391e-08
298,4761.878688654903,3.67503810910255e-08
299,4897.932354200318,3.7466628548907884e-08
300,5033.986033351435,3.817421649827368e-08
301,5170.039712502553,3.887338199055742e-08
302,5306.0933916536715,3.956434782749173e-08
303,5442.147070804789,4.024732383986428e-08
304,5578.200749955907,4.092250805470102e-08
305,5714.254415501321,4.1590087587233114e-08
306,5850.308094652439,4.225024002642526e-08
307,5986.361773803556,4.2903133588239053e-08
308,6122.415452954675,4.354892826242465e-08
309,6258.469132105793,4.4187776355477685e-08
310,6394.522797651206,4.4819822964701556e-08
311,6530.576476802325,4.544520686756611e-08
312,6666.630155953442,4.606406045427201e-08
313,6802.68383510456,4.6676510489458886e-08
314,6938.737514255678,4.728267843639401e-08
315,7074.791179801093,4.7882680694270155e-08
316,7210.8448589522095,4.8476629279625655e-08
317,7346.898538103329,4.906463161364313e-08
318,7482.952217254446,4.964679108333646e-08
319,7619.005896405564,5.022320724149472e-08
320,7755.059575556682,5.079397602039053e-08
321,7891.113241102096,5.1359189874510915e-08
322,8027.166920253213,5.1918938285572304e-08
323,8163.220599404332,5.247330742013926e-08
324,8299.27427855545,5.3022380664729274e-08
325,8435.327957706568,5.3566238696753217e-08
326,8571.38162325198,5.4104959493148886e-08
327,8707.435302403099,5.463861885423169e-08
328,8843.488981554217,5.516728999690293e-08
329,8979.542660705336,5.569104400278493e-08
330,9115.596339856453,5.620994983081097e-08
331,9251.650019007571,5.6724074467156084e-08
332,9387.703684552984,5.723348285141978e-08
333,9523.757363704102,5.773823838979222e-08
334,9659.81104285522,5.823840245965333e-08
335,9795.86472200634,5.873403489836917e-08
336,9931.918401157456,5.9225193883930286e-08
337,10067.97206670287,5.971193605707226e-08
338,10204.025745853987,6.019431678877017e-08
339,10340.079425005106,6.067238982800508e-08
340,10476.133104156224,6.114620765043859e-08
341,10612.186783307343,6.161582145852756e-08
342,10748.24046245846,6.208128122359561e-08
343,10884.294128003874,6.254263559502108e-08
344,11020.34780715499,6.299993239080092e-08
345,11156.40148630611,6.345321802327467e-08
346,11292.455165457228,6.390253798787792e-08
347,11428.508844608346,6.43479367196241e-08
348,11564.562510153759,6.478945758878876e-08
349,11700.616189304877,6.522714328720491e-08
350,11836.669868455994,6.566103533984542e-08
351,11972.723547607113,6.609117447834412e-08
352,12108.777226758231,6.651760056589884e-08
353,12244.83090590935,6.694035265354023e-08
354,12380.884571454762,6.735946894250523e-08
355,12516.938250605881,6.777498704985078e-08
356,12652.991929756998,6.818694368249536e-08
357,12789.045608908116,6.859537486300465e-08
358,12925.099288059235,6.900031593495621e-08
359,13061.15295360465,6.94018014885122e-08
360,13197.206632755768,6.979986570741687e-08
361,13333.260311906884,7.019454187620735e-08
362,13469.313991058003,7.058586278511764e-08
363,13605.36767020912,7.097386060874062e-08
364,16326.441198808663,7.808095070898274e-08
365,19047.514727408205,8.408040932100856e-08
366,21768.58826961345,8.91335211720369e-08
367,24489.661798212994,9.336667831587569e-08
368,27210.735326812537,9.688247846538214e-08
369,29931.808869017783,9.976635327094615e-08
370,32652.882397617326,1.020908043648091e-07
371,35373.95592621687,1.0391825903622893e-07
372,38095.029468422115,1.0530307960490732e-07
373,40816.10299702166,1.0629302885805203e-07
374,43537.1765392269,1.0693037138550668e-07
375,46258.25006782645,1.0725272214349765e-07
376,48979.32359642599,1.0729371542934085e-07
377,51700.39713863123,1.0708354147682314e-07
378,54421.47066723078,1.066493845685788e-07
379,57142.54419583032,1.0601578581316174e-07
380,59863.617738035566,1.0520494710346146e-07
381,62584.691266635105,1.04236988661008e-07
382,65305.76479523465,1.0313022238979621e-07
383,68026.8383374399,1.0190157488913014e-07
384,70747.91186603945,1.0056680845162158e-07
385,73468.98539463898,9.914093456216199e-08
386,76190.05893684423,9.763876513716683e-08
387,78911.13246544376,9.607569528604553e-08
388,81632.20599404332,9.446868191826412e-08
389,84353.27953624855,9.283763888576832e-08
390,87074.35306484811,9.120709915460544e-08
391,89795.42659344764,8.960853332441988e-08
392,92516.5001356529,8.807981115654263e-08
393,95237.57366425243,8.662456108660571e-08
394,97958.64719285197,8.523424897753888e-08
395,100679.72073505721,8.390428942428236e-08
396,103400.79426365678,8.263053359895142e-08
397,106121.86779225631,8.140921754204423e-08
398,108842.94133446156,8.02369176442456e-08
399,111564.0148630611,7.911051226046216e-08
400,114285.08839166064,7.802714854008075e-08
401,117006.16193386588,7.69842135264551e-08
402,119727.23546246543,7.597930892009003e-08
403,122448.30900467066,7.501022912864394e-08
404,125169.38253327021,7.407494180559511e-08
405,127890.45606186974,7.317157092049085e-08
406,130611.529604075,7.229838169233296e-08
407,133332.60313267456,7.145376723562748e-08
408,136053.6766612741,7.063623678194468e-08
409,138774.75020347934,6.984440519550938e-08
410,141495.8237320789,6.90769835582738e-08
411,144216.89726067844,6.833277077494944e-08
412,146937.97080288368,6.761064612469185e-08
413,149659.04433148322,6.690956243743117e-08
414,156461.72816658777,6.524263023691222e-08
415,163264.4120016923,6.368754367411345e-08
416,170067.0958367969,6.223258453737312e-08
417,176869.77965829574,6.086766928852288e-08
418,183672.4634934003,5.9584068603138804e-08
419,190475.14732850486,5.8374183190450494e-08
420,197277.83116360943,5.7231363372389285e-08
421,204080.51499871397,5.614976254284308e-08
422,210883.19883381855,5.512421716652866e-08
423,217685.88266892312,5.41501480782822e-08
424,224488.56649042197,5.322347847620736e-08
425,231291.25032552652,5.23405655640394e-08
426,238093.93416063106,5.1498143265024167e-08
427,244896.61799573564,5.069327373047948e-08
428,251699.30183084018,4.992330641676553e-08
429,258501.98566594475,4.918584304239019e-08
430,265304.6695010493,4.847870777656356e-08
431,272107.3533225482,4.779992145354742e-08
432,278910.0371576527,4.714767947103873e-08
433,285712.7209927573,4.6520332542007644e-08
434,292515.4048278619,4.591637004217159e-08
435,299318.08866296645,4.533440540839312e-08
436,306120.77249807096,4.4773163456419656e-08
437,312923.45633317553,4.423146916204749e-08
438,319726.1401682801,4.370823783515078e-08
439,326528.82398977893,4.3202466421036283e-08
440,333331.50782488356,4.271322581958949e-08
441,340134.1916599881,4.223965403909488e-08
442,346936.87549509265,4.178095013086292e-08
443,353739.5593301972,4.133636879882038e-08
444,360542.24316530174,4.090521549687007e-08
445,367344.9270004063,4.0486842143607627e-08
446,374147.6108219052,4.0080643173790444e-08
447,380950.2946570097,3.968605210545372e-08
448,387752.9784921143,3.930253828456135e-08
