,E (eV),I (erg/s/cm**2)
0,1.360543186192048,0.0001762988069211295
1,2.0408011735840956,0.00022401971102161902
2,2.7210727666801198,0.0002508833885444166
3,3.401344359776144,0.00016757581568892764
4,4.081615952872168,0.00019093458487832088
5,4.761873940264215,0.0002209354114868252
6,5.4421455333602395,0.00025593596898323777
7,6.122417126456264,0.0002868892658343806
8,6.802688719552288,0.00031136710381806824
9,7.482946706944335,0.0003408255883939388
10,8.16321830004036,0.00037042984162202335
11,8.843489893136384,0.0008346877689549834
12,9.523761486232408,0.0011317430145686876
13,10.204019473624456,0.00035211506315420703
14,10.884291066720479,0.0003669919068863121
15,11.564562659816504,0.00031285886282921455
16,12.244834252912527,0.0002106863112083862
17,12.92510584600855,0.00011386424216990892
18,13.7414208731606,4.841205231701105e-06
19,14.421692466256623,4.206840883453998e-06
20,15.101964059352648,3.884622895288637e-06
21,15.782222046744696,3.0679243829721135e-06
22,16.46249363984072,3.5032646264824753e-06
23,17.142765232936743,3.4858110824239174e-06
24,17.823036826032766,3.4306982584371536e-06
25,18.503294813424816,3.4262756683454738e-06
26,19.18356640652084,3.422834208115369e-06
27,19.863837999616862,3.247190281973188e-06
28,20.544109592712886,3.658885996558556e-06
29,21.224367580104932,3.659715434378583e-06
30,21.90463917320096,3.3663153384040993e-06
31,22.584910766296982,3.401780949589842e-06
32,23.26518235939301,4.109518725813171e-06
33,23.945440346785055,4.2077233106968655e-06
34,24.62571193988108,4.0057494876556985e-06
35,25.305983532977105,3.7172933470121923e-06
36,25.986255126073125,3.931731753202576e-06
37,26.66652671916915,3.5695670083321143e-06
38,27.210741272505174,3.5700509654690956e-06
39,27.3467847065612,3.655313054728524e-06
40,27.4828417463212,3.4535865246698625e-06
41,27.618898786081196,3.2250587066542577e-06
42,27.7549558258412,3.6783519810660847e-06
43,27.89099925989722,3.3142570370465136e-06
44,28.02705629965722,3.3526301991098414e-06
45,28.16311333941722,3.424881128234111e-06
46,28.299170379177223,3.723997312749262e-06
47,28.435213813233247,3.443586153877121e-06
48,28.571270852993244,3.7183336680753247e-06
49,28.70732789275325,3.65285260273757e-06
50,28.843384932513246,3.6156176247661753e-06
51,28.97942836656927,3.7187803310417966e-06
52,29.115485406329267,3.5756933736814023e-06
53,29.25154244608927,3.686970801462255e-06
54,29.387599485849268,3.4761912461099737e-06
55,29.523642919905292,3.2034853227078123e-06
56,29.659699959665296,3.5178448907142254e-06
57,29.795756999425294,3.3813315045589774e-06
58,29.931814039185298,3.4544099059961715e-06
59,30.067857473241315,3.5954383164537403e-06
60,30.20391451300132,3.2356782246398826e-06
61,30.339971552761316,3.2368727350575192e-06
62,30.47602859252132,3.5957312192238547e-06
63,30.612072026577344,3.161881262479275e-06
64,30.74812906633734,3.0731432936660246e-06
65,30.884186106097346,3.291215791579099e-06
66,31.020243145857343,3.0296464280480044e-06
67,31.156286579913367,2.966331966329061e-06
68,31.292343619673364,3.0107118282172186e-06
69,31.42840065943337,2.67318700629374e-06
70,31.564457699193365,2.9334383929638317e-06
71,31.70050113324939,3.059170727012359e-06
72,31.836558173009394,2.4685487459464524e-06
73,31.97261521276939,2.815684017841795e-06
74,32.108672252529395,2.77415857879851e-06
75,32.244715686585415,2.4201552714344197e-06
76,32.38077272634541,2.6956553206862966e-06
77,32.51682976610541,2.523896642461432e-06
78,32.652886805865414,2.6009906465615624e-06
79,32.78893023992144,2.76103367711243e-06
80,32.92498727968144,2.635287057251372e-06
81,33.06104431944144,2.9036185916888045e-06
82,33.19710135920144,2.8904240269314703e-06
83,33.33314479325746,2.790096696128222e-06
84,33.46920183301746,3.0562473811959288e-06
85,33.60525887277746,2.660320974890437e-06
86,33.74131591253746,2.8350290769122536e-06
87,33.87735934659349,2.6026624663886065e-06
88,34.01341638635349,2.449802841782961e-06
89,34.14947342611349,2.696968841504815e-06
90,34.285530465873485,2.503924027132201e-06
91,34.421573899929506,2.8308970427961935e-06
92,34.55763093968951,2.5728792395041694e-06
93,34.69368797944951,2.6199102218629066e-06
94,34.82974501920951,2.6020715937064384e-06
95,34.96578845326554,2.7755214877526054e-06
96,35.101845493025536,2.762285131692967e-06
97,35.23790253278553,2.969182097951451e-06
98,35.37395957254554,2.966586938624301e-06
99,35.51000300660156,2.8729068173801197e-06
100,35.646060046361555,3.2572333333759272e-06
101,35.78211708612156,2.9639435964034133e-06
102,35.918174125881556,3.2075777750538535e-06
103,36.054217559937584,3.0687323511539e-06
104,36.19027459969758,3.239679593589786e-06
105,36.326331639457585,3.5019154961175103e-06
106,36.46238867921758,3.1413366411955195e-06
107,36.59844571897758,3.475594696695712e-06
108,36.73448915303361,3.378211098175298e-06
109,36.870546192793604,3.5098902524996963e-06
110,37.00660323255361,3.6520640614794064e-06
111,37.142660272313606,3.844280351044143e-06
112,37.27870370636963,4.022676580806187e-06
113,37.41476074612963,3.963115702140737e-06
114,37.55081778588963,4.3617646455577795e-06
115,37.686874825649625,4.3167053772909906e-06
116,37.82291825970565,4.669684416827308e-06
117,37.958975299465656,4.648455036512039e-06
118,38.095032339225654,4.725749905352308e-06
119,38.23108937898566,4.8370141889988575e-06
120,38.36713281304168,4.8862992688672554e-06
121,38.503189852801675,4.926413488761997e-06
122,38.63924689256167,5.3619817751980635e-06
123,38.77530393232168,5.702991151455038e-06
124,38.911347366377704,5.850787392868242e-06
125,39.0474044061377,6.337431840286489e-06
126,39.183461445897706,6.472396166936233e-06
127,39.3195184856577,7.066070079810279e-06
128,39.45556191971372,7.2562392508979235e-06
129,39.59161895947372,7.772674864187077e-06
130,39.727675999233725,8.089866897730218e-06
131,39.86373303899372,8.92831766192275e-06
132,39.99977647304975,9.085309078814536e-06
133,40.135833512809754,9.991006565224916e-06
134,40.27189055256975,9.993389514746045e-06
135,40.407947592329755,1.1239937627605368e-05
136,40.54399102638577,1.122469309304064e-05
137,40.68004806614577,1.2702678673243063e-05
138,40.81610510590577,1.2353449512507226e-05
139,40.952162145665774,2.132402112580521e-06
140,41.0882055797218,2.004600904217504e-06
141,41.2242626194818,2.2436726038341115e-06
142,41.3603196592418,2.0306345320682255e-06
143,41.4963766990018,2.2057877281139197e-06
144,41.63242013305782,1.9507610777031637e-06
145,41.76847717281782,2.13715726437038e-06
146,41.90453421257782,1.8092258462546004e-06
147,42.04059125233782,1.99856601812263e-06
148,42.17663468639385,1.8579167145932918e-06
149,42.31269172615385,2.0587143703617243e-06
150,42.44874876591385,1.89754347800023e-06
151,42.584805805673845,2.1639928786721212e-06
152,42.720849239729866,2.0199623689002393e-06
153,42.85690627948987,2.192078226157183e-06
154,42.99296331924987,2.1697679986598536e-06
155,43.12902035900987,2.130055224438698e-06
156,43.2650637930659,2.1984424167019588e-06
157,43.401120832825896,2.0633509193491287e-06
158,43.53717787258589,2.1835289413132927e-06
159,43.67323491234589,2.06372133121352e-06
160,43.80927834640192,2.1011983364414954e-06
161,43.945335386161915,2.0145646760260885e-06
162,44.08139242592192,2.0104227185593017e-06
163,44.217449465681916,1.8819791422188334e-06
164,44.353492899737944,1.8782369889002865e-06
165,44.48954993949794,1.7198654788843149e-06
166,44.62560697925794,1.831888352266382e-06
167,44.761664019017935,1.7869051537520545e-06
168,44.89770745307396,1.8645189966948516e-06
169,45.03376449283397,1.7881255957395464e-06
170,45.169821532593964,1.651018648368575e-06
171,45.30587857235397,1.5857197717840708e-06
172,45.44192200640999,1.3411594825410926e-06
173,45.577979046169986,1.3388184270983816e-06
174,45.71403608592998,1.2218273374333366e-06
175,45.85009312568999,1.1797770754317878e-06
176,45.986136559746015,1.183078159625034e-06
177,46.12219359950601,1.1492713041269743e-06
178,46.258250639266016,1.050262737274896e-06
179,46.394307679026014,1.0309238542434274e-06
180,46.53035111308204,1.0104058983836774e-06
181,46.66640815284203,1.012128089275869e-06
182,46.802465192602035,9.688999423841307e-07
183,46.93852223236203,9.801143488174204e-07
184,47.07456566641806,9.36102742099163e-07
185,47.210622706178064,9.266193426652712e-07
186,47.34667974593806,7.688291920362204e-07
187,47.482736785698066,7.487928528776331e-07
188,47.618780219754086,7.358781099883154e-07
189,47.75483725951408,4.317552693619147e-07
190,47.89089429927408,5.319045837470417e-07
191,48.026951339034085,4.340303051194378e-07
192,48.16299477309011,3.382539704076877e-07
193,48.29905181285011,3.015694437737771e-07
194,48.43506041766452,9.500839272968403e-07
195,48.43515728755569,9.500858274601898e-07
196,48.57116589237011,1.0393029833359753e-06
197,48.707222932130115,9.965585330967402e-07
198,48.84326636618613,1.0347689830513754e-06
199,48.97932340594613,8.539349220079324e-07
200,49.11538044570613,7.51888440315246e-07
201,49.251437485466134,7.553165897831097e-07
202,49.38748091952216,5.533282879391683e-07
203,49.52353795928216,5.484956648929501e-07
204,49.65959499904216,5.751518921041738e-07
205,49.79565203880216,4.494632498581141e-07
206,49.93169547285818,4.142408125369972e-07
207,50.06775251261818,3.5112925492505097e-07
208,50.20380955237818,3.125971917994851e-07
209,50.33986659213818,4.003914236849307e-07
210,50.47591002619421,2.661566945871559e-07
211,50.61196706595421,2.581682030365909e-07
212,50.74802410571421,1.1138975450955165e-07
213,50.884081145474205,1.2891257384791637e-07
214,51.02007355950089,1.7818026903905025e-07
215,51.02017559955957,1.7818062539927951e-07
216,51.15618161929023,3.4492240833453095e-07
217,51.29223865905023,2.1712039337502714e-07
218,51.42829569881023,2.861347103254147e-07
219,51.56433913286626,1.9705852664960933e-07
220,51.700396172626256,1.1290072317466206e-07
221,51.83645321238625,1.4072768283920866e-07
222,51.97251025214625,8.857762024469258e-08
223,52.10855368620228,5.555454077414688e-08
224,52.24455848141958,4.1511130104625644e-08
225,52.244662970504976,4.151121312686077e-08
226,52.38066776572228,1.0185304937865327e-07
227,52.516724805482276,1.4235929441064122e-07
228,52.652768239538304,7.769682122034351e-08
229,52.7888252792983,3.4725225366398564e-08
230,52.92482939423041,2.0173769748851039e-07
231,52.924935243886196,2.017381009638939e-07
232,53.060939358818295,2.425690906574972e-07
233,53.19698279287432,1.9668585452394612e-07
234,53.33303983263433,2.1441358118612905e-07
235,53.469096872394324,2.362458859204116e-07
236,53.60515391215433,1.8948422872550655e-07
237,53.74119734621035,2.4177544886553685e-07
238,53.877254385970346,2.0772633012847086e-07
239,54.01331142573034,2.0477877522373453e-07
240,54.14936846549035,2.90082896017237e-07
241,54.285411899546375,1.6117558050467414e-07
242,54.55752597906638,3.456075206599924e-08
243,61.36021469861866,1.65365496882273e-09
244,68.16288981246697,5.008699758075163e-10
245,74.96557853201926,6.974716176054666e-10
246,81.76825364586757,2.7034046370651045e-10
247,88.57094236541987,6.527831174333293e-10
248,95.37363108497215,5.514422769450233e-10
249,102.17630619882047,3.116817719072592e-10
250,108.97899491837275,3.0307162749245635e-10
251,115.78168363792504,3.153564023817239e-10
252,122.58435875177334,3.174060162436691e-10
253,129.38704747132562,3.356237174079553e-10
254,136.05367915111793,3.5905032622134403e-10
255,136.1897361908779,3.596101351325354e-10
256,204.0805119238249,6.489013781570248e-10
257,272.10735830223587,1.1311641185956661e-09
258,340.1341910749428,2.11924808667721e-09
259,408.1610238476498,3.1684390558383793e-09
260,476.18787022606074,4.2408134849859885e-09
261,544.2147029987677,5.2715738602979724e-09
262,612.2415493771787,6.306786492403002e-09
263,680.2683821498856,7.528840355710859e-09
264,748.2952149225927,8.672410092966812e-09
265,816.3220613010035,9.734396603282149e-09
266,884.3488940737104,1.0722499416301525e-08
267,952.3757404521215,1.1646895465444971e-08
268,1020.4025732248285,1.2517488352320326e-08
269,1088.4294196032395,1.3342926656931376e-08
270,1156.4562523759464,1.4130408068123064e-08
271,1224.4830851486533,1.4885794425352484e-08
272,1292.5099315270643,1.561381844966234e-08
273,1360.5367642997712,1.6318295664306155e-08
274,1496.590443450889,1.7668374556680383e-08
275,1632.644122602007,1.8954489083746765e-08
276,1768.697801753125,2.018916165596871e-08
277,1904.7514672985392,2.1381156749181257e-08
278,2040.805146449657,2.253680460809315e-08
279,2176.8588256007747,2.3660814655656086e-08
280,2312.912504751893,2.475678828383787e-08
281,2448.966183903011,2.5827548670124544e-08
282,2585.0198630541286,2.6875358690168797e-08
283,2721.0735285995424,2.7902068220359415e-08
284,2857.1272077506605,2.890921671738345e-08
285,2993.180886901778,2.9898104552960665e-08
286,3129.2345660528963,3.086984562222792e-08
287,3265.288245204014,3.182540549594293e-08
288,3401.3419107494283,3.276562992309685e-08
289,3537.3955899005464,3.369126714904699e-08
290,3673.4492690516645,3.4602983906501185e-08
291,3809.502948202782,3.550137914785037e-08
292,3945.5566273539002,3.638699431834648e-08
293,4081.610306505018,3.726032174468508e-08
294,4217.663972050432,3.812181129805337e-08
295,4353.717651201549,3.897187647344779e-08
296,4489.771330352668,3.981089826699912e-08
297,4625.825009503786,4.063922948924679e-08
298,4761.878688654903,4.1457197914517384e-08
299,4897.932354200318,4.2265108905658853e-08
300,5033.986033351435,4.306324823540187e-08
301,5170.039712502553,4.385188338941108e-08
302,5306.0933916536715,4.4631265801651204e-08
303,5442.147070804789,4.540163225687237e-08
304,5578.200749955907,4.616320617358569e-08
305,5714.254415501321,4.69161987463596e-08
306,5850.308094652439,4.7660810351110024e-08
307,5986.361773803556,4.839723080113811e-08
308,6122.415452954675,4.912564064167625e-08
309,6258.469132105793,4.984621172880559e-08
310,6394.522797651206,5.0559107797521635e-08
311,6530.576476802325,5.126448544222849e-08
312,6666.630155953442,5.196249405185086e-08
313,6802.68383510456,5.2653276681241465e-08
314,6938.737514255678,5.333697038086118e-08
315,7074.791179801093,5.4013706512667143e-08
316,7210.8448589522095,5.468361147000588e-08
317,7346.898538103329,5.5346806461650417e-08
318,7482.952217254446,5.600340815777765e-08
319,7619.005896405564,5.66535289032563e-08
320,7755.059575556682,5.729727694554202e-08
321,7891.113241102096,5.793475660831046e-08
322,8027.166920253213,5.856606887464737e-08
323,8163.220599404332,5.919131097432158e-08
324,8299.27427855545,5.981057701424897e-08
325,8435.327957706568,6.042395801750503e-08
326,8571.38162325198,6.103154198789117e-08
327,8707.435302403099,6.16334144738904e-08
328,8843.488981554217,6.222965806682088e-08
329,8979.542660705336,6.282035300556621e-08
330,9115.596339856453,6.340557710591875e-08
331,9251.650019007571,6.398540592836633e-08
332,9387.703684552984,6.455991279757675e-08
333,9523.757363704102,6.512916924960915e-08
334,9659.81104285522,6.569324456123814e-08
335,9795.86472200634,6.625220621110366e-08
336,9931.918401157456,6.680611991173554e-08
337,10067.97206670287,6.735504953465307e-08
338,10204.025745853987,6.789905759529292e-08
339,10340.079425005106,6.843820474853573e-08
340,10476.133104156224,6.897255019664931e-08
341,10612.186783307343,6.950215173683632e-08
342,10748.24046245846,7.00270657292965e-08
343,10884.294128003874,7.05473471391964e-08
344,11020.34780715499,7.106304986453147e-08
345,11156.40148630611,7.157422633082489e-08
346,11292.455165457228,7.208092783080013e-08
347,11428.508844608346,7.258320455956477e-08
348,11564.562510153759,7.30811054449436e-08
349,11700.616189304877,7.357467866562563e-08
350,11836.669868455994,7.406397106671391e-08
351,11972.723547607113,7.45490286319953e-08
352,12108.777226758231,7.502989634853206e-08
353,12244.83090590935,7.550661830435165e-08
354,12380.884571454762,7.59792375590829e-08
355,12516.938250605881,7.644779663503139e-08
356,12652.991929756998,7.6912336905352e-08
357,12789.045608908116,7.737289905877385e-08
358,12925.099288059235,7.782952294703096e-08
359,13061.15295360465,7.828224762498471e-08
360,13197.206632755768,7.873111167108868e-08
361,13333.260311906884,7.917615264925727e-08
362,13469.313991058003,7.961740758391677e-08
363,13605.36767020912,8.005491276835714e-08
364,16326.441198808663,8.806833511898482e-08
365,19047.514727408205,9.483196136507587e-08
366,21768.58826961345,1.0052782580681614e-07
367,24489.661798212994,1.0529858466173114e-07
368,27210.735326812537,1.0926003944778433e-07
369,29931.808869017783,1.1250861660473687e-07
370,32652.882397617326,1.1512614787554344e-07
371,35373.95592621687,1.1718309301436968e-07
372,38095.029468422115,1.1874080784164292e-07
373,40816.10299702166,1.1985319785040483e-07
374,43537.1765392269,1.2056796179074082e-07
375,46258.25006782645,1.2092754923264749e-07
376,48979.32359642599,1.209699157700792e-07
377,51700.39713863123,1.207291289590519e-07
378,54421.47066723078,1.2023586276373765e-07
379,57142.54419583032,1.1951780716307935e-07
380,59863.617738035566,1.1860001141790593e-07
381,62584.691266635105,1.1750517515570769e-07
382,65305.76479523465,1.1625400810856117e-07
383,68026.8383374399,1.1486563169136857e-07
384,70747.91186603945,1.1335785675297404e-07
385,73468.98539463898,1.1174766137726852e-07
386,76190.05893684423,1.1005183507241059e-07
387,78911.13246544376,1.0828781555859685e-07
388,81632.20599404332,1.0647484582016513e-07
389,84353.27953624855,1.04635407917723e-07
390,87074.35306484811,1.0279719863371278e-07
391,89795.42659344764,1.0099551982059487e-07
392,92516.5001356529,9.927259721431923e-08
393,95237.57366425243,9.763244540000295e-08
394,97958.64719285197,9.606548241766445e-08
395,100679.72073505721,9.456654025995981e-08
396,103400.79426365678,9.313094294604761e-08
397,106121.86779225631,9.175444828656304e-08
398,108842.94133446156,9.043319766568292e-08
399,111564.0148630611,8.916367279987917e-08
400,114285.08839166064,8.794265839405664e-08
401,117006.16193386588,8.676720948626592e-08
402,119727.23546246543,8.563462306619902e-08
403,122448.30900467066,8.454241325705009e-08
404,125169.38253327021,8.348828951967266e-08
405,127890.45606186974,8.24701374718864e-08
406,130611.529604075,8.148600188999484e-08
407,133332.60313267456,8.05340717344881e-08
408,136053.6766612741,7.96126668178103e-08
409,138774.75020347934,7.872022602512447e-08
410,141495.8237320789,7.785529664832032e-08
411,144216.89726067844,7.701652501501266e-08
412,146937.97080288368,7.620264796813417e-08
413,149659.04433148322,7.54124853178899e-08
414,156461.72816658777,7.353375438931628e-08
415,163264.4120016923,7.178107998994658e-08
416,170067.0958367969,7.0141255019588e-08
417,176869.77965829574,6.860291476938058e-08
418,183672.4634934003,6.71562207475249e-08
419,190475.14732850486,6.579260814230865e-08
420,197277.83116360943,6.450458238111185e-08
421,204080.51499871397,6.328555398765703e-08
422,210883.19883381855,6.212970337757408e-08
423,217685.88266892312,6.103186954368815e-08
424,224488.56649042197,5.998745768824955e-08
425,231291.25032552652,5.899236220546742e-08
426,238093.93416063106,5.8042902006261804e-08
427,244896.61799573564,5.7135765976126305e-08
428,251699.30183084018,5.626796678433359e-08
429,258501.98566594475,5.5436801454218653e-08
430,265304.6695010493,5.463981767290957e-08
431,272107.3533225482,5.387478480738564e-08
432,278910.0371576527,5.3139668980505704e-08
433,285712.7209927573,5.2432611340094954e-08
434,292515.4048278619,5.175190932789351e-08
435,299318.08866296645,5.109600021005999e-08
436,306120.77249807096,5.046344677186338e-08
437,312923.45633317553,4.985292468554003e-08
438,319726.1401682801,4.926321146980158e-08
439,326528.82398977893,4.86931765942191e-08
440,333331.50782488356,4.814177291436974e-08
441,340134.1916599881,4.7608028920924364e-08
442,346936.87549509265,4.709104191444598e-08
443,353739.5593301972,4.6589971875860936e-08
444,360542.24316530174,4.610403601747035e-08
445,367344.9270004063,4.563250390942093e-08
446,374147.6108219052,4.5174693071612755e-08
447,380950.2946570097,4.472996501037525e-08
448,387752.9784921143,4.429772166474022e-08
