,E (eV),I (erg/s/cm**2)
0,1.360543186192048,4.2159169783865e-05
1,2.0408011735840956,5.301151416952373e-05
2,2.7210727666801198,6.061286495047234e-05
3,3.401344359776144,3.910232757418119e-05
4,4.081615952872168,4.4366454849022415e-05
5,4.761873940264215,5.030207758017403e-05
6,5.4421455333602395,5.8056749998434825e-05
7,6.122417126456264,6.516108909020278e-05
8,6.802688719552288,7.248449269294519e-05
9,7.482946706944335,7.755031484559677e-05
10,8.16321830004036,8.694305700274218e-05
11,8.843489893136384,9.345012162347245e-05
12,9.523761486232408,9.637259373800962e-05
13,10.204019473624456,8.031352153406871e-05
14,10.884291066720479,9.856092253334814e-05
15,11.564562659816504,9.146857030271144e-05
16,12.244834252912527,8.04847584102955e-05
17,12.92510584600855,6.088287205569051e-05
18,13.7414208731606,2.940090113081131e-06
19,14.421692466256623,2.5104859737377307e-06
20,15.101964059352648,2.288920887394098e-06
21,15.782222046744696,1.7283630474467886e-06
22,16.46249363984072,2.0206537273654803e-06
23,17.142765232936743,2.0108239168928958e-06
24,17.823036826032766,1.97144966865681e-06
25,18.503294813424816,1.9409134805835563e-06
26,19.18356640652084,1.935653160570433e-06
27,19.863837999616862,1.8691059047253084e-06
28,20.544109592712886,2.1289558993838686e-06
29,21.224367580104932,2.0986863406467142e-06
30,21.90463917320096,2.1124182016372374e-06
31,22.584910766296982,1.8678190866766306e-06
32,23.26518235939301,2.4557698482863253e-06
33,23.945440346785055,2.528553936983934e-06
34,24.62571193988108,2.4263125484443117e-06
35,25.305983532977105,2.0777605957860175e-06
36,25.986255126073125,2.397611028166847e-06
37,26.66652671916915,2.2426925929927103e-06
38,27.210741272505174,2.0824026970049345e-06
39,27.3467847065612,2.17603166245937e-06
40,27.4828417463212,2.0124615467429888e-06
41,27.618898786081196,1.929535861681118e-06
42,27.7549558258412,2.0936884174407665e-06
43,27.89099925989722,1.918628540769787e-06
44,28.02705629965722,1.913675109718071e-06
45,28.16311333941722,1.9576730700734223e-06
46,28.299170379177223,2.2196289932393464e-06
47,28.435213813233247,2.127302493841777e-06
48,28.571270852993244,2.1916780902306835e-06
49,28.70732789275325,2.1039352584385823e-06
50,28.843384932513246,2.164685186902716e-06
51,28.97942836656927,2.2442791304154724e-06
52,29.115485406329267,2.217671225908312e-06
53,29.25154244608927,2.242077984073174e-06
54,29.387599485849268,2.0260238121301527e-06
55,29.523642919905292,1.8480124590185156e-06
56,29.659699959665296,2.1283870453078356e-06
57,29.795756999425294,2.0577039797312604e-06
58,29.931814039185298,2.042763689985894e-06
59,30.067857473241315,2.0681681271813053e-06
60,30.20391451300132,2.033934313396982e-06
61,30.339971552761316,2.092618553720718e-06
62,30.47602859252132,2.1300978493011485e-06
63,30.612072026577344,1.8676435285088856e-06
64,30.74812906633734,1.8785832131003839e-06
65,30.884186106097346,2.0346377422699366e-06
66,31.020243145857343,1.9392548110256946e-06
67,31.156286579913367,1.7472259268536256e-06
68,31.292343619673364,1.687457831088276e-06
69,31.42840065943337,1.650540013900072e-06
70,31.564457699193365,1.770473035326315e-06
71,31.70050113324939,1.6986432261632855e-06
72,31.836558173009394,1.5016275160633657e-06
73,31.97261521276939,1.5720423894907303e-06
74,32.108672252529395,1.5321306916626584e-06
75,32.244715686585415,1.482833945170558e-06
76,32.38077272634541,1.4558384632483757e-06
77,32.51682976610541,1.3760337459337663e-06
78,32.652886805865414,1.5467271545539985e-06
79,32.78893023992144,1.531477026823946e-06
80,32.92498727968144,1.5682058332625444e-06
81,33.06104431944144,1.719440502891479e-06
82,33.19710135920144,1.7465862469335652e-06
83,33.33314479325746,1.6948428015547007e-06
84,33.46920183301746,1.7501625950068463e-06
85,33.60525887277746,1.6436386484468677e-06
86,33.74131591253746,1.596163721167675e-06
87,33.87735934659349,1.4215599790883187e-06
88,34.01341638635349,1.3609034654839459e-06
89,34.14947342611349,1.4769899397750695e-06
90,34.285530465873485,1.435497293407365e-06
91,34.421573899929506,1.5271829276717426e-06
92,34.55763093968951,1.3607057599014143e-06
93,34.69368797944951,1.3617226080993041e-06
94,34.82974501920951,1.2619377257431957e-06
95,34.96578845326554,1.470573524025009e-06
96,35.101845493025536,1.5200223869156885e-06
97,35.23790253278553,1.480268828978081e-06
98,35.37395957254554,1.563111064189183e-06
99,35.51000300660156,1.5644119520831697e-06
100,35.646060046361555,1.559736887492749e-06
101,35.78211708612156,1.6290879409471345e-06
102,35.918174125881556,1.5856633333201158e-06
103,36.054217559937584,1.417902965305791e-06
104,36.19027459969758,1.696643937165427e-06
105,36.326331639457585,1.7069418545694574e-06
106,36.46238867921758,1.5119100226518592e-06
107,36.59844571897758,1.575294735646558e-06
108,36.73448915303361,1.6816264274091099e-06
109,36.870546192793604,1.5681532173605155e-06
110,37.00660323255361,1.6407893254521313e-06
111,37.142660272313606,1.8880149172913247e-06
112,37.27870370636963,1.6637534794342746e-06
113,37.41476074612963,1.846073648346449e-06
114,37.55081778588963,1.9316525631027964e-06
115,37.686874825649625,1.7985253346009258e-06
116,37.82291825970565,2.009525419108637e-06
117,37.958975299465656,1.7911221344752502e-06
118,38.095032339225654,1.7664606241853018e-06
119,38.23108937898566,1.7025574001105618e-06
120,38.36713281304168,1.55510902033272e-06
121,38.503189852801675,1.521222128913712e-06
122,38.63924689256167,1.5840291942211601e-06
123,38.77530393232168,1.4945894693248071e-06
124,38.911347366377704,1.550577462731387e-06
125,39.0474044061377,1.6438252016912438e-06
126,39.183461445897706,2.4377590517838955e-06
127,39.3195184856577,4.07277881834748e-06
128,39.45556191971372,5.638127100172502e-06
129,39.59161895947372,6.198706055678022e-06
130,39.727675999233725,7.699498830330558e-06
131,39.86373303899372,7.848747302313262e-06
132,39.99977647304975,9.33644956533156e-06
133,40.135833512809754,1.0595058855378788e-05
134,40.27189055256975,1.045511454457607e-05
135,40.407947592329755,1.2116578408873668e-05
136,40.54399102638577,1.1961864473625989e-05
137,40.68004806614577,1.3847560718913198e-05
138,40.81610510590577,1.3509062928779318e-05
139,40.952162145665774,1.1417717800469522e-06
140,41.0882055797218,1.106917259821157e-06
141,41.2242626194818,1.2447261169868607e-06
142,41.3603196592418,1.1258634059093644e-06
143,41.4963766990018,1.211480325865901e-06
144,41.63242013305782,1.0709805679799681e-06
145,41.76847717281782,1.1015187262738486e-06
146,41.90453421257782,9.757554904209834e-07
147,42.04059125233782,9.71983955428918e-07
148,42.17663468639385,1.0583925074477072e-06
149,42.31269172615385,1.0178478659477633e-06
150,42.44874876591385,1.1232752777686258e-06
151,42.584805805673845,1.1509739250800512e-06
152,42.720849239729866,1.1923222163987604e-06
153,42.85690627948987,1.2005683491063726e-06
154,42.99296331924987,1.287719748554968e-06
155,43.12902035900987,1.22179706780177e-06
156,43.2650637930659,1.3328741968696828e-06
157,43.401120832825896,1.2467659245244095e-06
158,43.53717787258589,1.3643106392850018e-06
159,43.67323491234589,1.2890170969610495e-06
160,43.80927834640192,1.327744264905964e-06
161,43.945335386161915,1.2726623102936619e-06
162,44.08139242592192,1.253585042278869e-06
163,44.217449465681916,1.2059947421199002e-06
164,44.353492899737944,1.1468281873803253e-06
165,44.48954993949794,1.1067482117434175e-06
166,44.62560697925794,1.1417264393561933e-06
167,44.761664019017935,1.1987906304618593e-06
168,44.89770745307396,1.2066137078137885e-06
169,45.03376449283397,1.2078517785614813e-06
170,45.169821532593964,1.0775312042946207e-06
171,45.30587857235397,1.0634174641042199e-06
172,45.44192200640999,8.525624833450508e-07
173,45.577979046169986,9.07548085005913e-07
174,45.71403608592998,7.702272742412821e-07
175,45.85009312568999,8.211736307810182e-07
176,45.986136559746015,7.642140371446793e-07
177,46.12219359950601,8.268953900603913e-07
178,46.258250639266016,7.238625152223626e-07
179,46.394307679026014,8.1196355853442e-07
180,46.53035111308204,7.32722304985287e-07
181,46.66640815284203,8.050229871369109e-07
182,46.802465192602035,7.032050447526121e-07
183,46.93852223236203,8.034706822889427e-07
184,47.07456566641806,7.192021576074468e-07
185,47.210622706178064,7.610086668469955e-07
186,47.34667974593806,6.001148669604864e-07
187,47.482736785698066,6.678262723944178e-07
188,47.618780219754086,5.310435307289993e-07
189,47.75483725951408,4.7120032261244123e-07
190,47.89089429927408,3.9006958863361176e-07
191,48.026951339034085,3.8357925369155887e-07
192,48.16299477309011,2.679569296411844e-07
193,48.29905181285011,2.3857519406414744e-07
194,48.43506041766452,6.879142662686695e-07
195,48.43515728755569,6.879156420939401e-07
196,48.57116589237011,7.820614671316691e-07
197,48.707222932130115,7.979751856736876e-07
198,48.84326636618613,7.732194987560347e-07
199,48.97932340594613,6.981433486483201e-07
200,49.11538044570613,5.71992056559863e-07
201,49.251437485466134,6.119687768528666e-07
202,49.38748091952216,4.3568025935508265e-07
203,49.52353795928216,4.83206612957831e-07
204,49.65959499904216,4.034277122477546e-07
205,49.79565203880216,4.0216215753487906e-07
206,49.93169547285818,2.8996719902962455e-07
207,50.06775251261818,3.1836769369680573e-07
208,50.20380955237818,2.3525846586880473e-07
209,50.33986659213818,2.900041973013378e-07
210,50.47591002619421,2.0897252888488215e-07
211,50.61196706595421,1.876028764962191e-07
212,50.74802410571421,8.637354212550328e-08
213,50.884081145474205,1.0042188670441213e-07
214,51.02007355950089,1.3990430746923916e-07
215,51.02017559955957,1.3990458727761163e-07
216,51.15618161929023,2.7094374864244644e-07
217,51.29223865905023,2.1449696020872123e-07
218,51.42829569881023,2.1926446787972355e-07
219,51.56433913286626,1.7796796045246876e-07
220,51.700396172626256,9.125836576714019e-08
221,51.83645321238625,1.0960145510464262e-07
222,51.97251025214625,6.817438422138104e-08
223,52.10855368620228,4.1723948345579576e-08
224,52.24455848141958,3.0481049732552433e-08
225,52.244662970504976,3.048111069463348e-08
226,52.38066776572228,8.705228388795738e-08
227,52.516724805482276,1.0964609142221227e-07
228,52.652768239538304,5.9454759931827594e-08
229,52.7888252792983,2.501816087712511e-08
230,52.92482939423041,1.901839003712902e-07
231,52.924935243886196,1.9018428073908015e-07
232,53.060939358818295,1.6939635242430352e-07
233,53.19698279287432,1.9530542855453125e-07
234,53.33303983263433,1.7026555794238634e-07
235,53.469096872394324,1.8861486876456674e-07
236,53.60515391215433,1.6929961973086914e-07
237,53.74119734621035,1.8957345177847505e-07
238,53.877254385970346,1.986143200630647e-07
239,54.01331142573034,1.9826931386619877e-07
240,54.14936846549035,2.4225063215209986e-07
241,54.285411899546375,1.3780870571227485e-07
242,54.55752597906638,3.976074483982919e-08
243,61.36021469861866,1.3388265505543158e-09
244,68.16288981246697,2.959389216532913e-10
245,74.96557853201926,4.500040084893093e-10
246,81.76825364586757,9.204100741303681e-11
247,88.57094236541987,4.003900669489824e-10
248,95.37363108497215,3.067263166769173e-10
249,102.17630619882047,9.700001194890607e-11
250,108.97899491837275,7.823178724495437e-11
251,115.78168363792504,7.630362012724303e-11
252,122.58435875177334,6.459792651461166e-11
253,129.38704747132562,6.596608019126e-11
254,136.05367915111793,7.113709622275996e-11
255,136.1897361908779,7.13084203893341e-11
256,204.0805119238249,1.3292043225519484e-10
257,272.10735830223587,2.501698972099639e-10
258,340.1341910749428,5.119271068740185e-10
259,408.1610238476498,7.798376519914167e-10
260,476.18787022606074,1.0102317700270016e-09
261,544.2147029987677,1.1919799124365205e-09
262,612.2415493771787,1.3609353213930752e-09
263,680.2683821498856,1.5595457136890946e-09
264,748.2952149225927,1.74083825954819e-09
265,816.3220613010035,1.9081999344507487e-09
266,884.3488940737104,2.0646249528200086e-09
267,952.3757404521215,2.212377027452988e-09
268,1020.4025732248285,2.3531455406117897e-09
269,1088.4294196032395,2.4881939668594913e-09
270,1156.4562523759464,2.618475570890753e-09
271,1224.4830851486533,2.7447185744081076e-09
272,1292.5099315270643,2.8674868581375446e-09
273,1360.5367642997712,2.987223120458167e-09
274,1496.590443450889,3.218941811897655e-09
275,1632.644122602007,3.44197080628879e-09
276,1768.697801753125,3.657739417344213e-09
277,1904.7514672985392,3.867267161042919e-09
278,2040.805146449657,4.071310442318531e-09
279,2176.8588256007747,4.270449599882224e-09
280,2312.912504751893,4.465142998621483e-09
281,2448.966183903011,4.655761658027484e-09
282,2585.0198630541286,4.8426122382659454e-09
283,2721.0735285995424,5.025952730808096e-09
284,2857.1272077506605,5.206003599023288e-09
285,2993.180886901778,5.382955571700046e-09
286,3129.2345660528963,5.55697559562288e-09
287,3265.288245204014,5.728211202968304e-09
288,3401.3419107494283,5.896793851167981e-09
289,3537.3955899005464,6.062841630990887e-09
290,3673.4492690516645,6.226461187316888e-09
291,3809.502948202782,6.38774946900889e-09
292,3945.5566273539002,6.546795042239381e-09
293,4081.610306505018,6.703679188845117e-09
294,4217.663972050432,6.858476793357637e-09
295,4353.717651201549,7.011257190673423e-09
296,4489.771330352668,7.162084670081135e-09
297,4625.825009503786,7.311019110591211e-09
298,4761.878688654903,7.458116427020065e-09
299,4897.932354200318,7.603428938173275e-09
300,5033.986033351435,7.747005814032226e-09
301,5170.039712502553,7.888893235477609e-09
302,5306.0933916536715,8.029134753696635e-09
303,5442.147070804789,8.167771501251803e-09
304,5578.200749955907,8.304842391253925e-09
305,5714.254415501321,8.440384288188347e-09
306,5850.308094652439,8.574432243788531e-09
307,5986.361773803556,8.707019526951557e-09
308,6122.415452954675,8.838177829923335e-09
309,6258.469132105793,8.967937373969059e-09
310,6394.522797651206,9.096326981986083e-09
311,6530.576476802325,9.223374265754476e-09
312,6666.630155953442,9.349105588157371e-09
313,6802.68383510456,9.473546225493991e-09
314,6938.737514255678,9.596720414233682e-09
315,7074.791179801093,9.718651402493482e-09
316,7210.8448589522095,9.839361584519676e-09
317,7346.898538103329,9.958872441407435e-09
318,7482.952217254446,1.007720466744767e-08
319,7619.005896405564,1.0194378204928911e-08
320,7755.059575556682,1.031041227860997e-08
321,7891.113241102096,1.0425325417304675e-08
322,8027.166920253213,1.0539135575007432e-08
323,8163.220599404332,1.0651860044260979e-08
324,8299.27427855545,1.0763515561208152e-08
325,8435.327957706568,1.0874118326095414e-08
326,8571.38162325198,1.0983684008870077e-08
327,8707.435302403099,1.1092227836496225e-08
328,8843.488981554217,1.1199764528801251e-08
329,8979.542660705336,1.1306308372450132e-08
330,9115.596339856453,1.14118732396076e-08
331,9251.650019007571,1.151647259821701e-08
332,9387.703684552984,1.16201195211634e-08
333,9523.757363704102,1.1722826761902557e-08
334,9659.81104285522,1.1824606675476297e-08
335,9795.86472200634,1.1925471299279875e-08
336,9931.918401157456,1.2025432359209617e-08
337,10067.97206670287,1.2124501245387246e-08
338,10204.025745853987,1.2222689113433097e-08
339,10340.079425005106,1.2320006791296211e-08
340,10476.133104156224,1.2416464841601879e-08
341,10612.186783307343,1.2512073584519209e-08
342,10748.24046245846,1.260684307794949e-08
343,10884.294128003874,1.270078313082811e-08
344,11020.34780715499,1.2793903374050348e-08
345,11156.40148630611,1.2886213161338436e-08
346,11292.455165457228,1.2977721653876547e-08
347,11428.508844608346,1.3068437812022942e-08
348,11564.562510153759,1.3158370376777761e-08
349,11700.616189304877,1.324752794813134e-08
350,11836.669868455994,1.333591889805113e-08
351,11972.723547607113,1.3423551431190381e-08
352,12108.777226758231,1.3510433584987205e-08
353,12244.83090590935,1.3596573231999117e-08
354,12380.884571454762,1.36819780722548e-08
355,12516.938250605881,1.3766655690370989e-08
356,12652.991929756998,1.3850613479869233e-08
357,12789.045608908116,1.39338587048814e-08
358,12925.099288059235,1.4016398488613767e-08
359,13061.15295360465,1.4098239807865128e-08
360,13197.206632755768,1.4179389550637741e-08
361,13333.260311906884,1.4259854428975033e-08
362,13469.313991058003,1.4339641051485516e-08
363,13605.36767020912,1.4418755905237327e-08
364,16326.441198808663,1.5869049752333344e-08
365,19047.514727408205,1.7095309863127858e-08
366,21768.58826961345,1.813004632702321e-08
367,24489.661798212994,1.8998732137657936e-08
368,27210.735326812537,1.9722043159813045e-08
369,29931.808869017783,2.031719613646669e-08
370,32652.882397617326,2.0798803668898054e-08
371,35373.95592621687,2.1179450375026787e-08
372,38095.029468422115,2.1470098089387196e-08
373,40816.10299702166,2.1680381189824923e-08
374,43537.1765392269,2.181882846619373e-08
375,46258.25006782645,2.18930339317959e-08
376,48979.32359642599,2.19097913863566e-08
377,51700.39713863123,2.187520234778439e-08
378,54421.47066723078,2.1794764082197264e-08
379,57142.54419583032,2.167344248237462e-08
380,59863.617738035566,2.1515733098254313e-08
381,62584.691266635105,2.1325712842623124e-08
382,65305.76479523465,2.1107084294163983e-08
383,68026.8383374399,2.0863213851844784e-08
384,70747.91186603945,2.0597164956854837e-08
385,73468.98539463898,2.0311776395406198e-08
386,76190.05893684423,2.0009931450529803e-08
387,78911.13246544376,1.9694590151211346e-08
388,81632.20599404332,1.936900344370582e-08
389,84353.27953624855,1.9037061663019662e-08
390,87074.35306484811,1.8703773800920974e-08
391,89795.42659344764,1.8375955861623054e-08
392,92516.5001356529,1.8062332554948872e-08
393,95237.57366425243,1.776385298743166e-08
394,97958.64719285197,1.7478692639355254e-08
395,100679.72073505721,1.720591100934383e-08
396,103400.79426365678,1.6944657143325502e-08
397,106121.86779225631,1.6694159024835544e-08
398,108842.94133446156,1.645371444427463e-08
399,111564.0148630611,1.6222683133362082e-08
400,114285.08839166064,1.6000479946716534e-08
401,117006.16193386588,1.578656895665169e-08
402,119727.23546246543,1.558045824740634e-08
403,122448.30900467066,1.5381695435384306e-08
404,125169.38253327021,1.5189863677148398e-08
405,127890.45606186974,1.5004578182865108e-08
406,130611.529604075,1.4825483133395454e-08
407,133332.60313267456,1.4652248948134045e-08
408,136053.6766612741,1.448456986217647e-08
409,138774.75020347934,1.432216177597484e-08
410,141495.8237320789,1.4164760314559679e-08
411,144216.89726067844,1.4012119135302628e-08
412,146937.97080288368,1.3864008364098279e-08
413,149659.04433148322,1.3720213218809113e-08
414,156461.72816658777,1.3378318743557447e-08
415,163264.4120016923,1.3059364467781185e-08
416,170067.0958367969,1.2760946903514602e-08
417,176869.77965829574,1.2480997859413494e-08
418,183672.4634934003,1.2217726888091472e-08
419,190475.14732850486,1.1969575329781023e-08
420,197277.83116360943,1.1735179290349229e-08
421,204080.51499871397,1.1513339596680651e-08
422,210883.19883381855,1.1302997173275776e-08
423,217685.88266892312,1.1103212804083432e-08
424,224488.56649042197,1.0913150312641439e-08
425,231291.25032552652,1.0732062541681535e-08
426,238093.93416063106,1.0559279596221363e-08
427,244896.61799573564,1.0394198910299607e-08
428,251699.30183084018,1.0236276836547677e-08
429,258501.98566594475,1.0085021478149204e-08
430,265304.6695010493,9.939986553154392e-09
431,272107.3533225482,9.800766131443518e-09
432,278910.0371576527,9.666990071723985e-09
433,285712.7209927573,9.538320101107258e-09
434,292515.4048278619,9.414446379349659e-09
435,299318.08866296645,9.295084515275649e-09
436,306120.77249807096,9.179972963315248e-09
437,312923.45633317553,9.068870718280492e-09
438,319726.1401682801,8.961555304368837e-09
439,326528.82398977893,8.857820988956484e-09
440,333331.50782488356,8.757477209315367e-09
441,340134.1916599881,8.660347168390212e-09
442,346936.87549509265,8.566266586776227e-09
443,353739.5593301972,8.475082597290763e-09
444,360542.24316530174,8.38665274923276e-09
445,367344.9270004063,8.300844113801146e-09
446,374147.6108219052,8.217532491708548e-09
447,380950.2946570097,8.136601689902915e-09
