,E (eV),I (erg/s/cm**2)
0,1.360543186192048,5.885960924280094e-05
1,2.0408011735840956,7.398081917624712e-05
2,2.7210727666801198,8.161411879584142e-05
3,3.401344359776144,5.434600317645305e-05
4,4.081615952872168,6.19342250001094e-05
5,4.761873940264215,7.108424530094422e-05
6,5.4421455333602395,8.251194712988518e-05
7,6.122417126456264,9.11046385033179e-05
8,6.802688719552288,0.00010136405542495167
9,7.482946706944335,0.00011056479077810124
10,8.16321830004036,0.000123210073412846
11,8.843489893136384,0.00013109859717764795
12,9.523761486232408,0.00013179209257124748
13,10.204019473624456,0.00011826188602259047
14,10.884291066720479,0.00013683924960532413
15,11.564562659816504,0.00012260786242668497
16,12.244834252912527,0.00011262759214681817
17,12.92510584600855,7.203037031285892e-05
18,13.7414208731606,3.2163993297347077e-06
19,14.421692466256623,2.7514947265109616e-06
20,15.101964059352648,2.5104122675086215e-06
21,15.782222046744696,1.9127198673186213e-06
22,16.46249363984072,2.2210965687956943e-06
23,17.142765232936743,2.214162740748123e-06
24,17.823036826032766,2.165510354444587e-06
25,18.503294813424816,2.144613817286547e-06
26,19.18356640652084,2.1605525938883656e-06
27,19.863837999616862,2.087382232895911e-06
28,20.544109592712886,2.3729101278859056e-06
29,21.224367580104932,2.336887372840934e-06
30,21.90463917320096,2.3441058716969658e-06
31,22.584910766296982,2.1298825921698882e-06
32,23.26518235939301,2.7317667177539797e-06
33,23.945440346785055,2.8081506779085824e-06
34,24.62571193988108,2.7091481905465664e-06
35,25.305983532977105,2.4231736319517966e-06
36,25.986255126073125,2.674966186174623e-06
37,26.66652671916915,2.4793556231402496e-06
38,27.210741272505174,2.327506938228179e-06
39,27.3467847065612,2.4374694315748246e-06
40,27.4828417463212,2.293280618758954e-06
41,27.618898786081196,2.1985482444866648e-06
42,27.7549558258412,2.3808337748758677e-06
43,27.89099925989722,2.184268256843708e-06
44,28.02705629965722,2.1625991539025065e-06
45,28.16311333941722,2.196576258572375e-06
46,28.299170379177223,2.477188404914408e-06
47,28.435213813233247,2.4004272562051117e-06
48,28.571270852993244,2.494681889308147e-06
49,28.70732789275325,2.4083906551853517e-06
50,28.843384932513246,2.4317118113152874e-06
51,28.97942836656927,2.5259524138640343e-06
52,29.115485406329267,2.5002980321866743e-06
53,29.25154244608927,2.51970027961986e-06
54,29.387599485849268,2.2858972879453976e-06
55,29.523642919905292,2.0949248516812204e-06
56,29.659699959665296,2.411360564007519e-06
57,29.795756999425294,2.3527598507240687e-06
58,29.931814039185298,2.32680255112838e-06
59,30.067857473241315,2.3155832936039296e-06
60,30.20391451300132,2.2585620177053117e-06
61,30.339971552761316,2.3632893675056985e-06
62,30.47602859252132,2.4196353049299467e-06
63,30.612072026577344,2.092201585744513e-06
64,30.74812906633734,2.1032818893771182e-06
65,30.884186106097346,2.254497967140578e-06
66,31.020243145857343,2.157783378290925e-06
67,31.156286579913367,1.9860597081019776e-06
68,31.292343619673364,1.8818337361787162e-06
69,31.42840065943337,1.8571846122786618e-06
70,31.564457699193365,2.0276432412148596e-06
71,31.70050113324939,1.9339821046145105e-06
72,31.836558173009394,1.7361401690632527e-06
73,31.97261521276939,1.8417415028005246e-06
74,32.108672252529395,1.7625240106933097e-06
75,32.244715686585415,1.7147259694753154e-06
76,32.38077272634541,1.6723559445308363e-06
77,32.51682976610541,1.5729327377945858e-06
78,32.652886805865414,1.7827585116400959e-06
79,32.78893023992144,1.7623924330927412e-06
80,32.92498727968144,1.7956404184683392e-06
81,33.06104431944144,1.924489975793035e-06
82,33.19710135920144,1.941789721450968e-06
83,33.33314479325746,1.9203231206302858e-06
84,33.46920183301746,1.952109709320251e-06
85,33.60525887277746,1.8525713094091705e-06
86,33.74131591253746,1.851234692326874e-06
87,33.87735934659349,1.6448406155833304e-06
88,34.01341638635349,1.5682421398249243e-06
89,34.14947342611349,1.714141072299124e-06
90,34.285530465873485,1.6736077973869606e-06
91,34.421573899929506,1.7458729565997083e-06
92,34.55763093968951,1.5961833527852303e-06
93,34.69368797944951,1.6309437631948377e-06
94,34.82974501920951,1.4845405371398957e-06
95,34.96578845326554,1.6808712691820656e-06
96,35.101845493025536,1.777855340244667e-06
97,35.23790253278553,1.7142385498451256e-06
98,35.37395957254554,1.7692010814594084e-06
99,35.51000300660156,1.838526645408913e-06
100,35.646060046361555,1.83260572503017e-06
101,35.78211708612156,1.8715550482928642e-06
102,35.918174125881556,1.8975135844922464e-06
103,36.054217559937584,1.7196671981065822e-06
104,36.19027459969758,1.9845938217860893e-06
105,36.326331639457585,2.0106086207503914e-06
106,36.46238867921758,1.793571440984958e-06
107,36.59844571897758,1.82601521444131e-06
108,36.73448915303361,1.9348615091847602e-06
109,36.870546192793604,1.8425405843096947e-06
110,37.00660323255361,1.8486489896490016e-06
111,37.142660272313606,2.162442311722177e-06
112,37.27870370636963,1.924420532917095e-06
113,37.41476074612963,2.0683560183552544e-06
114,37.55081778588963,2.2106304012732995e-06
115,37.686874825649625,2.048233630725592e-06
116,37.82291825970565,2.271054094158206e-06
117,37.958975299465656,2.073352212825597e-06
118,38.095032339225654,2.0499657967736747e-06
119,38.23108937898566,2.0002835267820087e-06
120,38.36713281304168,1.8523820007387938e-06
121,38.503189852801675,2.0460571246571143e-06
122,38.63924689256167,2.9058553820375745e-06
123,38.77530393232168,3.78418258512561e-06
124,38.911347366377704,4.183913460983977e-06
125,39.0474044061377,5.045137277016065e-06
126,39.183461445897706,5.065475307050265e-06
127,39.3195184856577,5.978670520308311e-06
128,39.45556191971372,6.737569770625981e-06
129,39.59161895947372,6.554865432021517e-06
130,39.727675999233725,7.665571067501508e-06
131,39.86373303899372,7.556182633302007e-06
132,39.99977647304975,8.757886027827775e-06
133,40.135833512809754,9.86198709856696e-06
134,40.27189055256975,9.89263981212813e-06
135,40.407947592329755,1.1428532668509929e-05
136,40.54399102638577,1.1472332118013358e-05
137,40.68004806614577,1.3301945374026168e-05
138,40.81610510590577,1.3052138135794581e-05
139,40.952162145665774,1.3482856280353001e-06
140,41.0882055797218,1.3070092967310091e-06
141,41.2242626194818,1.4511428908332965e-06
142,41.3603196592418,1.3366231601510613e-06
143,41.4963766990018,1.4230108068982683e-06
144,41.63242013305782,1.293412689102583e-06
145,41.76847717281782,1.310864597190631e-06
146,41.90453421257782,1.2015689686962625e-06
147,42.04059125233782,1.1663147667356618e-06
148,42.17663468639385,1.2514626101068739e-06
149,42.31269172615385,1.2090936522353712e-06
150,42.44874876591385,1.3180747200361962e-06
151,42.584805805673845,1.3499748387295884e-06
152,42.720849239729866,1.4263212543038244e-06
153,42.85690627948987,1.444940155454709e-06
154,42.99296331924987,1.548239988266407e-06
155,43.12902035900987,1.4463035461272383e-06
156,43.2650637930659,1.5573516051559415e-06
157,43.401120832825896,1.4313115786150133e-06
158,43.53717787258589,1.5554316651971954e-06
159,43.67323491234589,1.4560091931190817e-06
160,43.80927834640192,1.4928573328069161e-06
161,43.945335386161915,1.4420309844691466e-06
162,44.08139242592192,1.409922684742169e-06
163,44.217449465681916,1.356502019876108e-06
164,44.353492899737944,1.2926480600030912e-06
165,44.48954993949794,1.2671824670899434e-06
166,44.62560697925794,1.2851976636482336e-06
167,44.761664019017935,1.3743816403671399e-06
168,44.89770745307396,1.3758381991083668e-06
169,45.03376449283397,1.3922749083789524e-06
170,45.169821532593964,1.2300571913550564e-06
171,45.30587857235397,1.225946301267263e-06
172,45.44192200640999,1.0026952781493874e-06
173,45.577979046169986,1.0689524512892855e-06
174,45.71403608592998,8.866151003689406e-07
175,45.85009312568999,9.587013062821288e-07
176,45.986136559746015,8.699515514949374e-07
177,46.12219359950601,9.348002983857011e-07
178,46.258250639266016,7.821518018643746e-07
179,46.394307679026014,8.585187333668066e-07
180,46.53035111308204,7.898029375751132e-07
181,46.66640815284203,8.507711836733736e-07
182,46.802465192602035,7.552104747420093e-07
183,46.93852223236203,8.46146334038752e-07
184,47.07456566641806,7.680226727672678e-07
185,47.210622706178064,7.998692660820649e-07
186,47.34667974593806,6.393208354406787e-07
187,47.482736785698066,6.969591294401908e-07
188,47.618780219754086,5.663570400668609e-07
189,47.75483725951408,4.900592578876484e-07
190,47.89089429927408,4.1397767138803456e-07
191,48.026951339034085,3.988249705854531e-07
192,48.16299477309011,2.814957010191495e-07
193,48.29905181285011,2.50648708829592e-07
194,48.43506041766452,7.566069803809292e-07
195,48.43515728755569,7.566084935913024e-07
196,48.57116589237011,8.37879290602055e-07
197,48.707222932130115,8.532053218194296e-07
198,48.84326636618613,8.223719094098711e-07
199,48.97932340594613,7.357733539000656e-07
200,49.11538044570613,6.078510763309947e-07
201,49.251437485466134,6.49122408775694e-07
202,49.38748091952216,4.632057821709844e-07
203,49.52353795928216,5.168394313988386e-07
204,49.65959499904216,4.2914902626162335e-07
205,49.79565203880216,4.3147912896773325e-07
206,49.93169547285818,3.067756690683328e-07
207,50.06775251261818,3.413697083869265e-07
208,50.20380955237818,2.469968283244837e-07
209,50.33986659213818,3.080636479949207e-07
210,50.47591002619421,2.1978258580147762e-07
211,50.61196706595421,1.991179785647327e-07
212,50.74802410571421,9.084974660173538e-08
213,50.884081145474205,1.0559785897377984e-07
214,51.02007355950089,1.4704792056967313e-07
215,51.02017559955957,1.470482146652594e-07
216,51.15618161929023,2.84486020925087e-07
217,51.29223865905023,2.2254971556771284e-07
218,51.42829569881023,2.3107373268196325e-07
219,51.56433913286626,1.8866132084435348e-07
220,51.700396172626256,9.557300669094258e-08
221,51.83645321238625,1.1523234289649069e-07
222,51.97251025214625,7.173827562359578e-08
223,52.10855368620228,4.396897466197556e-08
224,52.24455848141958,3.216504550374243e-08
225,52.244662970504976,3.216510983381401e-08
226,52.38066776572228,9.056523794110413e-08
227,52.516724805482276,1.1536853874464683e-07
228,52.652768239538304,6.256252905898082e-08
229,52.7888252792983,2.6414357844677245e-08
230,52.92482939423041,1.8261212617587734e-07
231,52.924935243886196,1.8261249140011933e-07
232,53.060939358818295,1.689297075153486e-07
233,53.19698279287432,2.0499387215366136e-07
234,53.33303983263433,1.7054015362657363e-07
235,53.469096872394324,1.9705533004925615e-07
236,53.60515391215433,1.6930831558628757e-07
237,53.74119734621035,1.910392627957117e-07
238,53.877254385970346,1.9892587001689349e-07
239,54.01331142573034,1.9860900024436964e-07
240,54.14936846549035,2.474882541342286e-07
241,54.285411899546375,1.3844081384054277e-07
242,54.55752597906638,3.503841583038249e-08
243,61.36021469861866,1.2594248338851786e-09
244,68.16288981246697,2.8998435724079297e-10
245,74.96557853201926,4.3701786333292274e-10
246,81.76825364586757,9.540683927662033e-11
247,88.57094236541987,3.921470017625183e-10
248,95.37363108497215,3.025800531457694e-10
249,102.17630619882047,1.0193371647681733e-10
250,108.97899491837275,8.453316481895268e-11
251,115.78168363792504,8.352883189689055e-11
252,122.58435875177334,7.289546963682481e-11
253,129.38704747132562,7.509657909863365e-11
254,136.05367915111793,8.087169874486598e-11
255,136.1897361908779,8.105572286765853e-11
256,204.0805119238249,1.4969876588124505e-10
257,272.10735830223587,2.624941879824622e-10
258,340.1341910749428,5.311929614961154e-10
259,408.1610238476498,8.345521532132874e-10
260,476.18787022606074,1.1231825651220184e-09
261,544.2147029987677,1.3689216488829687e-09
262,612.2415493771787,1.5988525271011774e-09
263,680.2683821498856,1.8630364852618438e-09
264,748.2952149225927,2.1041302091141704e-09
265,816.3220613010035,2.3257452320511993e-09
266,884.3488940737104,2.531666392629773e-09
267,952.3757404521215,2.7249835585241394e-09
268,1020.4025732248285,2.908107091572006e-09
269,1088.4294196032395,3.0828890146157016e-09
270,1156.4562523759464,3.2507500544846418e-09
271,1224.4830851486533,3.4127862113849353e-09
272,1292.5099315270643,3.5698504900609206e-09
273,1360.5367642997712,3.722613763047437e-09
274,1496.590443450889,4.0172685675621066e-09
275,1632.644122602007,4.299910862946793e-09
276,1768.697801753125,4.572674687330835e-09
277,1904.7514672985392,4.837063098640069e-09
278,2040.805146449657,5.094175738189528e-09
279,2176.8588256007747,5.344844332142091e-09
280,2312.912504751893,5.589716737139802e-09
281,2448.966183903011,5.829310542287564e-09
282,2585.0198630541286,6.064048446073872e-09
283,2721.0735285995424,6.29428222037703e-09
284,2857.1272077506605,6.5203095540776605e-09
285,2993.180886901778,6.742385782992981e-09
286,3129.2345660528963,6.960732716529696e-09
287,3265.288245204014,7.175545066866876e-09
288,3401.3419107494283,7.386995324412134e-09
289,3537.3955899005464,7.595237644180492e-09
290,3673.4492690516645,7.800410629988817e-09
291,3809.502948202782,8.002639786378855e-09
292,3945.5566273539002,8.202039380932369e-09
293,4081.610306505018,8.398713964718467e-09
294,4217.663972050432,8.592759605741051e-09
295,4353.717651201549,8.784265050757352e-09
296,4489.771330352668,8.973312417316759e-09
297,4625.825009503786,9.159978055384072e-09
298,4761.878688654903,9.344333136482276e-09
299,4897.932354200318,9.526444180191904e-09
300,5033.986033351435,9.706373598407223e-09
301,5170.039712502553,9.884179967270156e-09
302,5306.0933916536715,1.0059918455164001e-08
303,5442.147070804789,1.0233641126966686e-08
304,5578.200749955907,1.0405397199633493e-08
305,5714.254415501321,1.057523326250731e-08
306,5850.308094652439,1.0743193581462516e-08
307,5986.361773803556,1.0909320157275408e-08
308,6122.415452954675,1.1073652967099927e-08
309,6258.469132105793,1.1236230123320269e-08
310,6394.522797651206,1.1397087952127737e-08
311,6530.576476802325,1.1556261247154971e-08
312,6666.630155953442,1.1713783210916347e-08
313,6802.68383510456,1.186968566554121e-08
314,6938.737514255678,1.202399911968583e-08
315,7074.791179801093,1.2176752828275577e-08
316,7210.8448589522095,1.2327974958938342e-08
317,7346.898538103329,1.2477692538715324e-08
318,7482.952217254446,1.262593158562822e-08
319,7619.005896405564,1.2772717173736042e-08
320,7755.059575556682,1.291807346672904e-08
321,7891.113241102096,1.3062023758861159e-08
322,8027.166920253213,1.3204590602089531e-08
323,8163.220599404332,1.3345795729747809e-08
324,8299.27427855545,1.3485660169764866e-08
325,8435.327957706568,1.3624204272757762e-08
326,8571.38162325198,1.3761447712152055e-08
327,8707.435302403099,1.389740962152869e-08
328,8843.488981554217,1.403210847927154e-08
329,8979.542660705336,1.4165562229467934e-08
330,9115.596339856453,1.4297788285800848e-08
331,9251.650019007571,1.442880356038895e-08
332,9387.703684552984,1.4558624465327366e-08
333,9523.757363704102,1.4687267007110253e-08
334,9659.81104285522,1.481474669758355e-08
335,9795.86472200634,1.4941078644938076e-08
336,9931.918401157456,1.506627756109943e-08
337,10067.97206670287,1.5190357751994336e-08
338,10204.025745853987,1.5313333213251357e-08
339,10340.079425005106,1.5435217526961814e-08
340,10476.133104156224,1.5556023961136413e-08
341,10612.186783307343,1.567576545572141e-08
342,10748.24046245846,1.579445463316997e-08
343,10884.294128003874,1.591210380451917e-08
344,11020.34780715499,1.6028725050858068e-08
345,11156.40148630611,1.6144330113723323e-08
346,11292.455165457228,1.6258930482673765e-08
347,11428.508844608346,1.637253739958582e-08
348,11564.562510153759,1.6485161835562212e-08
349,11700.616189304877,1.6596814573927496e-08
350,11836.669868455994,1.670750612006149e-08
351,11972.723547607113,1.6817246769965165e-08
352,12108.777226758231,1.6926046606483164e-08
353,12244.83090590935,1.703391550602178e-08
354,12380.884571454762,1.714086312107219e-08
355,12516.938250605881,1.7246898971375736e-08
356,12652.991929756998,1.7352032333492428e-08
357,12789.045608908116,1.7456272322000126e-08
358,12925.099288059235,1.755962786695376e-08
359,13061.15295360465,1.7662107723047852e-08
360,13197.206632755768,1.776372052566539e-08
361,13333.260311906884,1.7864474697901143e-08
362,13469.313991058003,1.7964378533378787e-08
363,13605.36767020912,1.8063440169406866e-08
364,16326.441198808663,1.9879184659637725e-08
365,19047.514727408205,2.1414082394188496e-08
366,21768.58826961345,2.2708909577450593e-08
367,24489.661798212994,2.3795615850740304e-08
368,27210.735326812537,2.4700134007599605e-08
369,29931.808869017783,2.5444058022868442e-08
370,32652.882397617326,2.6045715289675427e-08
371,35373.95592621687,2.652088921067611e-08
372,38095.029468422115,2.688332735216044e-08
373,40816.10299702166,2.7145111888978543e-08
374,43537.1765392269,2.7316937882644415e-08
375,46258.25006782645,2.7408327548456627e-08
376,48979.32359642599,2.7427799107551993e-08
377,51700.39713863123,2.738300217932725e-08
378,54421.47066723078,2.7280828219933874e-08
379,57142.54419583032,2.7127501988296933e-08
380,59863.617738035566,2.692865813145806e-08
381,62584.691266635105,2.66894060904754e-08
382,65305.76479523465,2.641438563859037e-08
383,68026.8383374399,2.6107814853137082e-08
384,70747.91186603945,2.5773533577747465e-08
385,73468.98539463898,2.5415193285410936e-08
386,76190.05893684423,2.5036436612490947e-08
387,78911.13246544376,2.4640986817056704e-08
388,81632.20599404332,2.4232944718295167e-08
389,84353.27953624855,2.3817208212708817e-08
390,87074.35306484811,2.3400034568842785e-08
391,89795.42659344764,2.2989909137940335e-08
392,92516.5001356529,2.2597561261813888e-08
393,95237.57366425243,2.222414697490122e-08
394,97958.64719285197,2.1867395742895127e-08
395,100679.72073505721,2.1526130948211336e-08
396,103400.79426365678,2.1199288002052592e-08
397,106121.86779225631,2.088590107105907e-08
398,108842.94133446156,2.058509165895838e-08
399,111564.0148630611,2.0296058751957533e-08
400,114285.08839166064,2.0018070307607347e-08
401,117006.16193386588,1.9750455839122898e-08
402,119727.23546246543,1.9492599944269645e-08
403,122448.30900467066,1.9243936663979985e-08
404,125169.38253327021,1.9003944502124722e-08
405,127890.45606186974,1.8772142072256235e-08
406,130611.529604075,1.8548084223098303e-08
407,133332.60313267456,1.8331358629415564e-08
408,136053.6766612741,1.8121582769242263e-08
409,138774.75020347934,1.7918401208441978e-08
410,141495.8237320789,1.7721483214413105e-08
411,144216.89726067844,1.7530520581133118e-08
412,146937.97080288368,1.7345225738385642e-08
413,149659.04433148322,1.7165329980463094e-08
414,156461.72816658777,1.6737600860220293e-08
415,163264.4120016923,1.633857117562732e-08
416,170067.0958367969,1.5965234034015572e-08
417,176869.77965829574,1.56150020184552e-08
418,183672.4634934003,1.5285635182379374e-08
419,190475.14732850486,1.4975183552352497e-08
420,197277.83116360943,1.4681940832270663e-08
421,204080.51499871397,1.4404406787839224e-08
422,210883.19883381855,1.4141256458771854e-08
423,217685.88266892312,1.3891314836077613e-08
424,224488.56649042197,1.3653535813095596e-08
425,231291.25032552652,1.3426984664195671e-08
426,238093.93416063106,1.32108233077483e-08
427,244896.61799573564,1.300429790120531e-08
428,251699.30183084018,1.2806728312728994e-08
429,258501.98566594475,1.2617499156432728e-08
430,265304.6695010493,1.2436052107456388e-08
431,272107.3533225482,1.2261879320823275e-08
432,278910.0371576527,1.2094517736940856e-08
433,285712.7209927573,1.1933544154157925e-08
434,292515.4048278619,1.1778570942009985e-08
435,299318.08866296645,1.162924231658906e-08
436,306120.77249807096,1.1485231069711472e-08
437,312923.45633317553,1.1346235687888001e-08
438,319726.1401682801,1.1211977841755996e-08
439,326528.82398977893,1.1082200153809517e-08
440,333331.50782488356,1.0956664212172671e-08
441,340134.1916599881,1.0835148839493424e-08
442,346936.87549509265,1.0717448511139841e-08
443,353739.5593301972,1.0603371982416852e-08
444,360542.24316530174,1.0492741037863185e-08
445,367344.9270004063,1.0385389379370377e-08
446,374147.6108219052,1.0281161625141276e-08
