,E (eV),I (erg/s/cm**2)
0,1.360543186192048,1.5246092567276133e-05
1,2.0408011735840956,1.9323434254880052e-05
2,2.7210727666801198,2.1864380920867104e-05
3,3.401344359776144,1.4379211445506382e-05
4,4.081615952872168,1.623838587227745e-05
5,4.761873940264215,1.8294066889722475e-05
6,5.4421455333602395,2.110620873983363e-05
7,6.122417126456264,2.3818318880545018e-05
8,6.802688719552288,2.6119409499262382e-05
9,7.482946706944335,2.8019212995217696e-05
10,8.16321830004036,3.072150982662934e-05
11,8.843489893136384,3.438181359725747e-05
12,9.523761486232408,3.550342343968509e-05
13,10.204019473624456,2.3392800468857362e-05
14,10.884291066720479,3.5388420650816325e-05
15,11.564562659816504,3.523046630782323e-05
16,12.244834252912527,3.404105962508075e-05
17,12.92510584600855,2.6181619559810287e-05
18,13.7414208731606,2.2447547268560403e-06
19,14.421692466256623,1.884064371670476e-06
20,15.101964059352648,1.6808398954851873e-06
21,15.782222046744696,1.2250095045100115e-06
22,16.46249363984072,1.5007549922460805e-06
23,17.142765232936743,1.4643421746765434e-06
24,17.823036826032766,1.4496479267477987e-06
25,18.503294813424816,1.3406345813583725e-06
26,19.18356640652084,1.3564311829986922e-06
27,19.863837999616862,1.2999239213855502e-06
28,20.544109592712886,1.5038489771546142e-06
29,21.224367580104932,1.3204172906522407e-06
30,21.90463917320096,1.3799054538520443e-06
31,22.584910766296982,1.2380870088767718e-06
32,23.26518235939301,1.6452724564621797e-06
33,23.945440346785055,1.7549904767964258e-06
34,24.62571193988108,1.701589853847596e-06
35,25.305983532977105,1.401840367887983e-06
36,25.986255126073125,1.4290001077701904e-06
37,26.66652671916915,1.3705825845177895e-06
38,27.210741272505174,1.3040206403711847e-06
39,27.3467847065612,1.4103898933015939e-06
40,27.4828417463212,1.2472571389709838e-06
41,27.618898786081196,1.204156645306357e-06
42,27.7549558258412,1.3197015208250872e-06
43,27.89099925989722,1.0980769371507634e-06
44,28.02705629965722,1.1087285206183978e-06
45,28.16311333941722,1.1500167144380326e-06
46,28.299170379177223,1.3035850501513928e-06
47,28.435213813233247,1.2196762793951773e-06
48,28.571270852993244,1.3143849364122222e-06
49,28.70732789275325,1.252763711601139e-06
50,28.843384932513246,1.3666872754830683e-06
51,28.97942836656927,1.4558687610646864e-06
52,29.115485406329267,1.40469881185518e-06
53,29.25154244608927,1.3953773529422147e-06
54,29.387599485849268,1.1823996156400974e-06
55,29.523642919905292,9.739032482656448e-07
56,29.659699959665296,1.2498598822112964e-06
57,29.795756999425294,1.2275190141668374e-06
58,29.931814039185298,1.2321436071628352e-06
59,30.067857473241315,1.2564321512531758e-06
60,30.20391451300132,1.205407168100662e-06
61,30.339971552761316,1.2419223048969223e-06
62,30.47602859252132,1.3037190940540794e-06
63,30.612072026577344,1.1039447496668262e-06
64,30.74812906633734,1.1709844625658539e-06
65,30.884186106097346,1.2776719748392905e-06
66,31.020243145857343,1.1651455559517822e-06
67,31.156286579913367,1.0198762473806484e-06
68,31.292343619673364,1.020764983195191e-06
69,31.42840065943337,9.785963407082304e-07
70,31.564457699193365,1.1219072851734589e-06
71,31.70050113324939,1.0578639537334978e-06
72,31.836558173009394,9.355769564641681e-07
73,31.97261521276939,1.0130510320758909e-06
74,32.108672252529395,9.025944629146689e-07
75,32.244715686585415,8.581971852462495e-07
76,32.38077272634541,7.662701019721572e-07
77,32.51682976610541,6.629008811458077e-07
78,32.652886805865414,7.96658937492251e-07
79,32.78893023992144,7.938176802715209e-07
80,32.92498727968144,8.367601836500534e-07
81,33.06104431944144,9.96023046336663e-07
82,33.19710135920144,1.0373057103605965e-06
83,33.33314479325746,1.0546145979695172e-06
84,33.46920183301746,1.1624647087830629e-06
85,33.60525887277746,1.0102991737026508e-06
86,33.74131591253746,9.544851652366218e-07
87,33.87735934659349,7.545720608378561e-07
88,34.01341638635349,7.990677286425164e-07
89,34.14947342611349,9.057195831590653e-07
90,34.285530465873485,8.463618178382935e-07
91,34.421573899929506,9.351554618801658e-07
92,34.55763093968951,7.407005369318212e-07
93,34.69368797944951,6.748067318220075e-07
94,34.82974501920951,6.651384606837739e-07
95,34.96578845326554,7.874335340497986e-07
96,35.101845493025536,7.680301866781526e-07
97,35.23790253278553,8.173202805470458e-07
98,35.37395957254554,8.89230061586688e-07
99,35.51000300660156,8.220215149917518e-07
100,35.646060046361555,8.663620296517785e-07
101,35.78211708612156,9.297043048552959e-07
102,35.918174125881556,9.010876161770173e-07
103,36.054217559937584,7.737929974024313e-07
104,36.19027459969758,1.0298591658809025e-06
105,36.326331639457585,9.921667673006334e-07
106,36.46238867921758,7.632736933508425e-07
107,36.59844571897758,8.634790009551922e-07
108,36.73448915303361,8.316947733580281e-07
109,36.870546192793604,7.614735195532973e-07
110,37.00660323255361,7.820147951321511e-07
111,37.142660272313606,9.744833560233782e-07
112,37.27870370636963,8.509328818312459e-07
113,37.41476074612963,9.851269698706732e-07
114,37.55081778588963,1.1335855318009147e-06
115,37.686874825649625,1.0711430414735244e-06
116,37.82291825970565,1.2773095668561055e-06
117,37.958975299465656,1.0547025603346663e-06
118,38.095032339225654,1.1163873313341584e-06
119,38.23108937898566,1.035832773944998e-06
120,38.36713281304168,8.482615686218594e-07
121,38.503189852801675,8.577962050934865e-07
122,38.63924689256167,8.450763018616851e-07
123,38.77530393232168,7.897254764924598e-07
124,38.911347366377704,8.275976854766585e-07
125,39.0474044061377,8.330090530293027e-07
126,39.183461445897706,7.591461801809996e-07
127,39.3195184856577,8.501797189677585e-07
128,39.45556191971372,8.568759671847803e-07
129,39.59161895947372,8.06991309599377e-07
130,39.727675999233725,9.55597567433881e-07
131,39.86373303899372,9.568011353775604e-07
132,39.99977647304975,1.0941888306340418e-06
133,40.135833512809754,1.0511184859254566e-06
134,40.27189055256975,3.566672951539389e-06
135,40.407947592329755,7.75061666785073e-06
136,40.54399102638577,1.0432002551367203e-05
137,40.68004806614577,1.4095272319470742e-05
138,40.81610510590577,1.4759940957959647e-05
139,40.952162145665774,6.370427687999056e-07
140,41.0882055797218,6.45547525625498e-07
141,41.2242626194818,7.79843898103755e-07
142,41.3603196592418,7.060976705353097e-07
143,41.4963766990018,7.354469093099488e-07
144,41.63242013305782,6.179740781028173e-07
145,41.76847717281782,6.191970057108868e-07
146,41.90453421257782,4.5497794549287103e-07
147,42.04059125233782,4.591314622552058e-07
148,42.17663468639385,4.6282780473904757e-07
149,42.31269172615385,4.55008165204104e-07
150,42.44874876591385,5.13410653196495e-07
151,42.584805805673845,5.518914107306029e-07
152,42.720849239729866,6.114844892103496e-07
153,42.85690627948987,6.0949822340431e-07
154,42.99296331924987,6.975285975962139e-07
155,43.12902035900987,6.266490996592417e-07
156,43.2650637930659,7.270990493593964e-07
157,43.401120832825896,6.547207875860737e-07
158,43.53717787258589,7.650422786460158e-07
159,43.67323491234589,7.335949455326248e-07
160,43.80927834640192,7.558350167601045e-07
161,43.945335386161915,6.733876436655198e-07
162,44.08139242592192,6.378637027814432e-07
163,44.217449465681916,5.756413185206039e-07
164,44.353492899737944,5.628971684616397e-07
165,44.48954993949794,5.666741067669188e-07
166,44.62560697925794,6.712338732527204e-07
167,44.761664019017935,7.624815017678795e-07
168,44.89770745307396,8.025162103196186e-07
169,45.03376449283397,8.113466324656781e-07
170,45.169821532593964,6.92986337129517e-07
171,45.30587857235397,6.466089640139845e-07
172,45.44192200640999,5.138788643568038e-07
173,45.577979046169986,5.30226220585945e-07
174,45.71403608592998,4.169867137786844e-07
175,45.85009312568999,4.3348859645877294e-07
176,45.986136559746015,4.12157277172937e-07
177,46.12219359950601,4.1310217593679167e-07
178,46.258250639266016,3.148280684231723e-07
179,46.394307679026014,3.6092116933537643e-07
180,46.53035111308204,3.736886731737954e-07
181,46.66640815284203,4.0611733691325463e-07
182,46.802465192602035,3.7447196341842874e-07
183,46.93852223236203,4.950617993508885e-07
184,47.07456566641806,4.686457235731781e-07
185,47.210622706178064,5.018952199930174e-07
186,47.34667974593806,4.170164099861249e-07
187,47.482736785698066,4.988032066627529e-07
188,47.618780219754086,4.799493511155952e-07
189,47.75483725951408,4.437142899495152e-07
190,47.89089429927408,3.5356918041414374e-07
191,48.026951339034085,3.591059597217092e-07
192,48.16299477309011,2.4533011557058896e-07
193,48.29905181285011,2.1840654656642377e-07
194,48.43506041766452,3.7155112270051685e-07
195,48.43515728755569,3.715518658010004e-07
196,48.57116589237011,5.126671979814695e-07
197,48.707222932130115,5.192482805446e-07
198,48.84326636618613,5.139672719428506e-07
199,48.97932340594613,4.519533978875443e-07
200,49.11538044570613,3.9422767120594815e-07
201,49.251437485466134,4.0978386881273786e-07
202,49.38748091952216,2.936231993173231e-07
203,49.52353795928216,3.0531659239335803e-07
204,49.65959499904216,2.989786372579129e-07
205,49.79565203880216,2.909867026878193e-07
206,49.93169547285818,2.6005754719605145e-07
207,50.06775251261818,2.6098226656626377e-07
208,50.20380955237818,2.1825872252668394e-07
209,50.33986659213818,2.6340046255950436e-07
210,50.47591002619421,1.9180603616822658e-07
211,50.61196706595421,1.6986633587864431e-07
212,50.74802410571421,7.895481553387998e-08
213,50.884081145474205,9.182362133385738e-08
214,51.02007355950089,3.8935539723410616e-07
215,51.02017559955957,1.280046271204524e-07
216,51.15618161929023,3.535397271337124e-07
217,51.29223865905023,3.713108551469841e-07
218,51.42829569881023,2.029559575773302e-07
219,51.56433913286626,1.6400897123947905e-07
220,51.700396172626256,8.616343371109654e-08
221,51.83645321238625,1.017705583035016e-07
222,51.97251025214625,6.273627362025263e-08
223,52.10855368620228,3.809311989117721e-08
224,52.24455848141958,1.3025198724803515e-07
225,52.244662970504976,2.7798802805519078e-08
226,52.38066776572228,1.008817467756037e-07
227,52.516724805482276,1.1025189179644728e-07
228,52.652768239538304,6.262770484515755e-08
229,52.7888252792983,2.7470587444514505e-08
230,52.92482939423041,7.983901262257327e-07
231,52.924935243886196,7.983917230059398e-07
232,53.060939358818295,1.1157528666464722e-06
233,53.19698279287432,9.637340016373444e-07
234,53.33303983263433,1.3694338831379782e-06
235,53.469096872394324,1.2446042749812023e-06
236,53.60515391215433,7.530711382771609e-07
237,53.74119734621035,6.925607141575399e-07
238,53.877254385970346,2.4837874064905704e-07
239,54.01331142573034,2.4217791159562484e-07
240,54.14936846549035,2.6754225406468166e-07
241,54.285411899546375,1.677316710738605e-07
242,54.55752597906638,7.531867370292991e-08
243,61.36021469861866,2.117812812274474e-09
244,68.16288981246697,4.4360858589727857e-10
245,74.96557853201926,7.03702296203163e-10
246,81.76825364586757,1.276566360139543e-10
247,88.57094236541987,6.021812282719035e-10
248,95.37363108497215,4.602144030794771e-10
249,102.17630619882047,1.3174208794132675e-10
250,108.97899491837275,1.0212098239735595e-10
251,115.78168363792504,9.570929063285412e-11
252,122.58435875177334,7.852200504371022e-11
253,129.38704747132562,7.734968942962052e-11
254,136.05367915111793,8.422762772680436e-11
255,136.1897361908779,8.443162093892582e-11
256,204.0805119238249,2.2404992884729785e-10
257,272.10735830223587,4.019152775160021e-10
258,340.1341910749428,6.271935680226748e-10
259,408.1610238476498,7.824859770599584e-10
260,476.18787022606074,8.896068302602836e-10
261,544.2147029987677,9.660865615226188e-10
262,612.2415493771787,1.0463774950522778e-09
263,680.2683821498856,1.1574230844880084e-09
264,748.2952149225927,1.2614369900972075e-09
265,816.3220613010035,1.3598992244307752e-09
266,884.3488940737104,1.4540093667699535e-09
267,952.3757404521215,1.5446081337494636e-09
268,1020.4025732248285,1.632299076268003e-09
269,1088.4294196032395,1.7175264676803899e-09
270,1156.4562523759464,1.8006251371306714e-09
271,1224.4830851486533,1.8818532925549244e-09
272,1292.5099315270643,1.9614142101819707e-09
273,1360.5367642997712,2.039470938300547e-09
274,1496.590443450889,2.191581793104232e-09
275,1632.644122602007,2.3390080681268487e-09
276,1768.697801753125,2.4823439278502815e-09
277,1904.7514672985392,2.6220382426421185e-09
278,2040.805146449657,2.758442505976275e-09
279,2176.8588256007747,2.8918399038562633e-09
280,2312.912504751893,3.0224640257458257e-09
281,2448.966183903011,3.1505112533372193e-09
282,2585.0198630541286,3.2761493092527595e-09
283,2721.0735285995424,3.3995233242247677e-09
284,2857.1272077506605,3.520760348001568e-09
285,2993.180886901778,3.6399725738322664e-09
286,3129.2345660528963,3.75725994903131e-09
287,3265.288245204014,3.872712135468945e-09
288,3401.3419107494283,3.98641005721375e-09
289,3537.3955899005464,4.098427219923443e-09
290,3673.4492690516645,4.208830635450605e-09
291,3809.502948202782,4.317681724830575e-09
292,3945.5566273539002,4.425036996458975e-09
293,4081.610306505018,4.530948630755039e-09
294,4217.663972050432,4.6354649571539145e-09
295,4353.717651201549,4.73863093756651e-09
296,4489.771330352668,4.840488427147766e-09
297,4625.825009503786,4.9410765539328085e-09
298,4761.878688654903,5.040431967068762e-09
299,4897.932354200318,5.138589060258068e-09
300,5033.986033351435,5.235580229941719e-09
301,5170.039712502553,5.331435976423344e-09
302,5306.0933916536715,5.426185117376326e-09
303,5442.147070804789,5.5198549135107695e-09
304,5578.200749955907,5.612471199848144e-09
305,5714.254415501321,5.704058483534882e-09
306,5850.308094652439,5.79464009679284e-09
307,5986.361773803556,5.88423820733299e-09
308,6122.415452954675,5.972873958238483e-09
309,6258.469132105793,6.0605675237075745e-09
310,6394.522797651206,6.147338167208084e-09
311,6530.576476802325,6.2332043528987015e-09
312,6666.630155953442,6.318183722079364e-09
313,6802.68383510456,6.4022931987407995e-09
314,6938.737514255678,6.485549022312374e-09
315,7074.791179801093,6.567966775842622e-09
316,7210.8448589522095,6.649561477176682e-09
317,7346.898538103329,6.730347540568877e-09
318,7482.952217254446,6.810338855851137e-09
319,7619.005896405564,6.889548813070807e-09
320,7755.059575556682,6.967990323662626e-09
321,7891.113241102096,7.045675839153058e-09
322,8027.166920253213,7.122617424203138e-09
323,8163.220599404332,7.198826703500927e-09
324,8299.27427855545,7.274314931797202e-09
325,8435.327957706568,7.349093003293634e-09
326,8571.38162325198,7.423171459178678e-09
327,8707.435302403099,7.496560547132627e-09
328,8843.488981554217,7.569270167993618e-09
329,8979.542660705336,7.641309941556154e-09
330,9115.596339856453,7.712689202134741e-09
331,9251.650019007571,7.78341702151615e-09
332,9387.703684552984,7.853502199482798e-09
333,9523.757363704102,7.922953322093605e-09
334,9659.81104285522,7.991778715852511e-09
335,9795.86472200634,8.059986484235507e-09
336,9931.918401157456,8.127584526524876e-09
337,10067.97206670287,8.194580517960654e-09
338,10204.025745853987,8.260981972652034e-09
339,10340.079425005106,8.326796186297335e-09
340,10476.133104156224,8.392030280421793e-09
341,10612.186783307343,8.456691204437832e-09
342,10748.24046245846,8.520785739626733e-09
343,10884.294128003874,8.584320496648111e-09
344,11020.34780715499,8.647301963412574e-09
345,11156.40148630611,8.70973645004792e-09
346,11292.455165457228,8.771630130310249e-09
347,11428.508844608346,8.832989041875355e-09
348,11564.562510153759,8.893819079962169e-09
349,11700.616189304877,8.954126040195066e-09
350,11836.669868455994,9.013915567957965e-09
351,11972.723547607113,9.07319319539109e-09
352,12108.777226758231,9.131964343563095e-09
353,12244.83090590935,9.190234317770182e-09
354,12380.884571454762,9.248008306494013e-09
355,12516.938250605881,9.305291430724725e-09
356,12652.991929756998,9.362088671578891e-09
357,12789.045608908116,9.418404931199048e-09
358,12925.099288059235,9.474245009946567e-09
359,13061.15295360465,9.529613611281264e-09
360,13197.206632755768,9.584515382975882e-09
361,13333.260311906884,9.638954851667082e-09
362,13469.313991058003,9.69293647181535e-09
363,13605.36767020912,9.746464622381518e-09
364,16326.441198808663,1.0727914278776264e-08
365,19047.514727408205,1.155810565336989e-08
366,21768.58826961345,1.2258966984979553e-08
367,24489.661798212994,1.2847680191971583e-08
368,27210.735326812537,1.333819150824413e-08
369,29931.808869017783,1.374211411051571e-08
370,32652.882397617326,1.406930494008941e-08
371,35373.95592621687,1.4328253418095948e-08
372,38095.029468422115,1.4526354782237136e-08
373,40816.10299702166,1.4670109301004224e-08
374,43537.1765392269,1.476527189872823e-08
375,46258.25006782645,1.4816967345943245e-08
376,48979.32359642599,1.4829780998550105e-08
377,51700.39713863123,1.4807831544093356e-08
378,54421.47066723078,1.4754830345707432e-08
379,57142.54419583032,1.4674130566240016e-08
380,59863.617738035566,1.4568768288307577e-08
381,62584.691266635105,1.4441497370254747e-08
382,65305.76479523465,1.4294819274511172e-08
383,68026.8383374399,1.4131008804336551e-08
384,70747.91186603945,1.3952136456397433e-08
385,73468.98539463898,1.3760088052419812e-08
386,76190.05893684423,1.3556689742960843e-08
387,78911.13246544376,1.3343939211840411e-08
388,81632.20599404332,1.3124015893954356e-08
389,84353.27953624855,1.289953325397475e-08
390,87074.35306484811,1.2673886966251552e-08
391,89795.42659344764,1.2451747897762791e-08
392,92516.5001356529,1.2239212129847373e-08
393,95237.57366425243,1.2036949841918553e-08
394,97958.64719285197,1.1843713234875208e-08
395,100679.72073505721,1.1658864983826135e-08
396,103400.79426365678,1.1481828444725196e-08
397,106121.86779225631,1.1312080459620442e-08
398,108842.94133446156,1.1149145190219738e-08
399,111564.0148630611,1.0992588753874263e-08
400,114285.08839166064,1.0842014639370532e-08
401,117006.16193386588,1.0697059669639827e-08
402,119727.23546246543,1.0557390506901524e-08
403,122448.30900467066,1.042270059683243e-08
404,125169.38253327021,1.0292707461388246e-08
405,127890.45606186974,1.0167150357686038e-08
406,130611.529604075,1.0045788164911058e-08
407,133332.60313267456,9.9283975426158e-09
408,136053.6766612741,9.814771293428229e-09
409,138774.75020347934,9.704716898932117e-09
410,141495.8237320789,9.598055209074274e-09
411,144216.89726067844,9.494619284389018e-09
412,146937.97080288368,9.394253360560817e-09
413,149659.04433148322,9.296811889123162e-09
414,156461.72816658777,9.065130236361916e-09
415,163264.4120016923,8.848993833707359e-09
416,170067.0958367969,8.646773980678552e-09
417,176869.77965829574,8.457069176297085e-09
418,183672.4634934003,8.278666137565462e-09
419,190475.14732850486,8.110508651335081e-09
420,197277.83116360943,7.951672484870369e-09
421,204080.51499871397,7.801345021163961e-09
422,210883.19883381855,7.65880859489934e-09
423,217685.88266892312,7.523426745708253e-09
424,224488.56649042197,7.394632847398733e-09
425,231291.25032552652,7.271920594613339e-09
426,238093.93416063106,7.154836037739684e-09
427,244896.61799573564,7.042970850166404e-09
428,251699.30183084018,6.935956637192569e-09
429,258501.98566594475,6.833460067216871e-09
430,265304.6695010493,6.735178722104433e-09
431,272107.3533225482,6.640837521373701e-09
432,278910.0371576527,6.550185648676803e-09
433,285712.7209927573,6.462993870547801e-09
434,292515.4048278619,6.379052226652696e-09
435,299318.08866296645,6.298168006169411e-09
436,306120.77249807096,6.220163970438237e-09
437,312923.45633317553,6.144876804141026e-09
438,319726.1401682801,6.072155750916472e-09
439,326528.82398977893,6.0018613958964e-09
440,333331.50782488356,5.933864608040879e-09
441,340134.1916599881,5.868045577548253e-09
442,346936.87549509265,5.8042929879047196e-09
443,353739.5593301972,5.7425032450691914e-09
444,360542.24316530174,5.682579820310116e-09
445,367344.9270004063,5.62443263718331e-09
446,374147.6108219052,5.567977529463196e-09
447,380950.2946570097,5.513135762709275e-09
448,387752.9784921143,5.459833583109821e-09
