,E (eV),I (erg/s/cm**2)
0,1.360543186192048,6.99698152962096e-05
1,2.0408011735840956,8.86933144047498e-05
2,2.7210727666801198,9.909149578287097e-05
3,3.401344359776144,6.605658256621604e-05
4,4.081615952872168,7.459393176050685e-05
5,4.761873940264215,8.475388059036611e-05
6,5.4421455333602395,9.878593261684727e-05
7,6.122417126456264,0.00011069213406509793
8,6.802688719552288,0.0001226195555950449
9,7.482946706944335,0.00013295758466865123
10,8.16321830004036,0.00014620297123681754
11,8.843489893136384,0.00015690537549509657
12,9.523761486232408,0.000369645444377553
13,10.204019473624456,0.00014398741300156086
14,10.884291066720479,0.00015954361048619567
15,11.564562659816504,0.00014694118623142252
16,12.244834252912527,0.00013118173793797596
17,12.92510584600855,7.728266578812755e-05
18,13.7414208731606,3.400902223243532e-06
19,14.421692466256623,2.9141725636682447e-06
20,15.101964059352648,2.6619337187877614e-06
21,15.782222046744696,2.0425245653903848e-06
22,16.46249363984072,2.357347388108109e-06
23,17.142765232936743,2.3509281449718223e-06
24,17.823036826032766,2.301931264370285e-06
25,18.503294813424816,2.2790912319761927e-06
26,19.18356640652084,2.3012368642809854e-06
27,19.863837999616862,2.2164154767178857e-06
28,20.544109592712886,2.52125791069803e-06
29,21.224367580104932,2.5015256029173515e-06
30,21.90463917320096,2.480134699130708e-06
31,22.584910766296982,2.308099773692326e-06
32,23.26518235939301,2.904126085991544e-06
33,23.945440346785055,2.9635438753981683e-06
34,24.62571193988108,2.9171809323791587e-06
35,25.305983532977105,2.59322115074785e-06
36,25.986255126073125,2.8375966806933714e-06
37,26.66652671916915,2.620449347262395e-06
38,27.210741272505174,2.480365158829915e-06
39,27.3467847065612,2.5928723995687404e-06
40,27.4828417463212,2.4492313706712116e-06
41,27.618898786081196,2.3450517358114607e-06
42,27.7549558258412,2.546597692237305e-06
43,27.89099925989722,2.3452753696745717e-06
44,28.02705629965722,2.314616736774007e-06
45,28.16311333941722,2.3477052734216995e-06
46,28.299170379177223,2.625383714950755e-06
47,28.435213813233247,2.546079822274998e-06
48,28.571270852993244,2.66520040319931e-06
49,28.70732789275325,2.5804457114799363e-06
50,28.843384932513246,2.5876998303280692e-06
51,28.97942836656927,2.6843288212651553e-06
52,29.115485406329267,2.667175469274451e-06
53,29.25154244608927,2.6821428041106907e-06
54,29.387599485849268,2.4296909742071795e-06
55,29.523642919905292,2.216742361006981e-06
56,29.659699959665296,2.562981809138146e-06
57,29.795756999425294,2.5296399283373396e-06
58,29.931814039185298,2.4970030187472e-06
59,30.067857473241315,2.4526797874589435e-06
60,30.20391451300132,2.370326462968139e-06
61,30.339971552761316,2.4963556892395884e-06
62,30.47602859252132,2.5825180610612287e-06
63,30.612072026577344,2.2364661712383753e-06
64,30.74812906633734,2.2229904342484224e-06
65,30.884186106097346,2.3853193923042855e-06
66,31.020243145857343,2.2963217733489145e-06
67,31.156286579913367,2.120935319647092e-06
68,31.292343619673364,2.015294601352014e-06
69,31.42840065943337,1.9976553557093955e-06
70,31.564457699193365,2.159349370211279e-06
71,31.70050113324939,2.0599453557848284e-06
72,31.836558173009394,1.8602278895534628e-06
73,31.97261521276939,1.9618691201508443e-06
74,32.108672252529395,1.8729049762323294e-06
75,32.244715686585415,1.838927649604444e-06
76,32.38077272634541,1.815552199884208e-06
77,32.51682976610541,1.6894864087355597e-06
78,32.652886805865414,1.8987052587054734e-06
79,32.78893023992144,1.8931497920361619e-06
80,32.92498727968144,1.9132247922106803e-06
81,33.06104431944144,2.0425422058801668e-06
82,33.19710135920144,2.068006432501596e-06
83,33.33314479325746,2.057090935278562e-06
84,33.46920183301746,2.1046440249677103e-06
85,33.60525887277746,1.968385702701635e-06
86,33.74131591253746,1.9855426849395744e-06
87,33.87735934659349,1.7831478429823492e-06
88,34.01341638635349,1.6936778459034053e-06
89,34.14947342611349,1.839406937820844e-06
90,34.285530465873485,1.8125938702538202e-06
91,34.421573899929506,1.8830829946330163e-06
92,34.55763093968951,1.7027227500533874e-06
93,34.69368797944951,1.7772537302221318e-06
94,34.82974501920951,1.6298781873050085e-06
95,34.96578845326554,1.7857757289626317e-06
96,35.101845493025536,1.93534427668113e-06
97,35.23790253278553,1.882132772571892e-06
98,35.37395957254554,1.9031783684861528e-06
99,35.51000300660156,2.0127505134202854e-06
100,35.646060046361555,2.0142203247577956e-06
101,35.78211708612156,2.014085673179351e-06
102,35.918174125881556,2.062813297991578e-06
103,36.054217559937584,1.8797699594214702e-06
104,36.19027459969758,2.121859211917515e-06
105,36.326331639457585,2.145860548771341e-06
106,36.46238867921758,1.9471563300831383e-06
107,36.59844571897758,1.9624736403325303e-06
108,36.73448915303361,2.069083787864894e-06
109,36.870546192793604,2.0133246787625683e-06
110,37.00660323255361,1.967385229689253e-06
111,37.142660272313606,2.315177675074881e-06
112,37.27870370636963,2.0852772127894683e-06
113,37.41476074612963,2.215329376045421e-06
114,37.55081778588963,2.3854176969700436e-06
115,37.686874825649625,2.1899345753102035e-06
116,37.82291825970565,2.4346586667751067e-06
117,37.958975299465656,2.2471191327199793e-06
118,38.095032339225654,2.5997320250467163e-06
119,38.23108937898566,2.99785913794992e-06
120,38.36713281304168,3.4244434204751607e-06
121,38.503189852801675,3.593286333842923e-06
122,38.63924689256167,4.114711749694868e-06
123,38.77530393232168,4.594670154030009e-06
124,38.911347366377704,4.594332026648882e-06
125,39.0474044061377,5.209130777067803e-06
126,39.183461445897706,5.725031656131052e-06
127,39.3195184856577,5.828645938365149e-06
128,39.45556191971372,6.509763855544343e-06
129,39.59161895947372,6.375408715122379e-06
130,39.727675999233725,7.449553196284131e-06
131,39.86373303899372,7.393035164482979e-06
132,39.99977647304975,8.629720137332907e-06
133,40.135833512809754,9.715118316215045e-06
134,40.27189055256975,9.795174839016081e-06
135,40.407947592329755,1.1300143225731327e-05
136,40.54399102638577,1.1372205074512268e-05
137,40.68004806614577,1.3309588431499394e-05
138,40.81610510590577,1.3147382118360704e-05
139,40.952162145665774,1.476640044091741e-06
140,41.0882055797218,1.4166725565017202e-06
141,41.2242626194818,1.5787744971094402e-06
142,41.3603196592418,1.4571200221374408e-06
143,41.4963766990018,1.5277674588364202e-06
144,41.63242013305782,1.3993488924684175e-06
145,41.76847717281782,1.4069228688323765e-06
146,41.90453421257782,1.3141060588379606e-06
147,42.04059125233782,1.2764034967054054e-06
148,42.17663468639385,1.3878313164814014e-06
149,42.31269172615385,1.3387947610667004e-06
150,42.44874876591385,1.4451428611966265e-06
151,42.584805805673845,1.4643471970418027e-06
152,42.720849239729866,1.5331243332858142e-06
153,42.85690627948987,1.551587857632197e-06
154,42.99296331924987,1.6567485818501616e-06
155,43.12902035900987,1.5457778015393378e-06
156,43.2650637930659,1.6606021192402647e-06
157,43.401120832825896,1.5199779659321056e-06
158,43.53717787258589,1.6451659206822215e-06
159,43.67323491234589,1.5494879175364192e-06
160,43.80927834640192,1.5817621266866022e-06
161,43.945335386161915,1.5449794053515737e-06
162,44.08139242592192,1.5032197365569274e-06
163,44.217449465681916,1.4643895564611414e-06
164,44.353492899737944,1.388611114153047e-06
165,44.48954993949794,1.3678837299055039e-06
166,44.62560697925794,1.3782617641267805e-06
167,44.761664019017935,1.4684014426725867e-06
168,44.89770745307396,1.4594706735335153e-06
169,45.03376449283397,1.4972621498358755e-06
170,45.169821532593964,1.2963242724935144e-06
171,45.30587857235397,1.3097811864830033e-06
172,45.44192200640999,1.0455436951620014e-06
173,45.577979046169986,1.1105785162059234e-06
174,45.71403608592998,9.326110148624951e-07
175,45.85009312568999,9.963538037202094e-07
176,45.986136559746015,9.15676887364674e-07
177,46.12219359950601,9.722959336561953e-07
178,46.258250639266016,8.263065876409884e-07
179,46.394307679026014,8.922544913650045e-07
180,46.53035111308204,8.318137982097014e-07
181,46.66640815284203,8.831420991557208e-07
182,46.802465192602035,7.924469143528783e-07
183,46.93852223236203,8.75033045269624e-07
184,47.07456566641806,8.015764771339299e-07
185,47.210622706178064,8.245363429328949e-07
186,47.34667974593806,6.656324867488476e-07
187,47.482736785698066,7.141363280708331e-07
188,47.618780219754086,5.895968731749048e-07
189,47.75483725951408,5.006441770905211e-07
190,47.89089429927408,4.2917568938073164e-07
191,48.026951339034085,4.071882946438524e-07
192,48.16299477309011,2.8953864499574286e-07
193,48.29905181285011,2.578275422275402e-07
194,48.43506041766452,7.600758434943898e-07
195,48.43515728755569,7.600773636424727e-07
196,48.57116589237011,8.748564243603455e-07
197,48.707222932130115,8.466498755463258e-07
198,48.84326636618613,8.580150415379267e-07
199,48.97932340594613,7.212466727183427e-07
200,49.11538044570613,6.327346511276985e-07
201,49.251437485466134,6.730067241180133e-07
202,49.38748091952216,4.821273957325165e-07
203,49.52353795928216,5.356796387773037e-07
204,49.65959499904216,4.4663851269838135e-07
205,49.79565203880216,4.518337696178542e-07
206,49.93169547285818,3.1990785603572776e-07
207,50.06775251261818,3.570481575424828e-07
208,50.20380955237818,2.541707635811839e-07
209,50.33986659213818,3.1975170998090184e-07
210,50.47591002619421,2.2632308246308817e-07
211,50.61196706595421,2.064478238103936e-07
212,50.74802410571421,9.35458365100464e-08
213,50.884081145474205,1.0870635145940332e-07
214,51.02007355950089,3.3555878803637315e-07
215,51.02017559955957,1.5131665395807933e-07
216,51.15618161929023,2.928406320188557e-07
217,51.29223865905023,2.2706764191905526e-07
218,51.42829569881023,2.3837113086674518e-07
219,51.56433913286626,1.954908763906193e-07
220,51.700396172626256,9.814343930202774e-08
221,51.83645321238625,1.1864744637502971e-07
222,51.97251025214625,7.389507082255292e-08
223,52.10855368620228,4.5347931910173124e-08
224,52.24455848141958,1.314036167596957e-07
225,52.244662970504976,3.3213151730702e-08
226,52.38066776572228,9.255284231844739e-08
227,52.516724805482276,1.1885998420248782e-07
228,52.652768239538304,6.445707599233122e-08
229,52.7888252792983,2.7297801335407766e-08
230,52.92482939423041,1.8144201857646622e-07
231,52.924935243886196,1.8144238146049308e-07
232,53.060939358818295,1.72964598280959e-07
233,53.19698279287432,2.0896972527274499e-07
234,53.33303983263433,1.7397936422802479e-07
235,53.469096872394324,1.942514283838526e-07
236,53.60515391215433,1.717043313407233e-07
237,53.74119734621035,1.956677537841797e-07
238,53.877254385970346,2.0072967181986788e-07
239,54.01331142573034,2.0008780786063558e-07
240,54.14936846549035,2.5233678247938843e-07
241,54.285411899546375,1.4043014493727744e-07
242,54.55752597906638,3.386959538335426e-08
243,61.36021469861866,1.2603098144257543e-09
244,68.16288981246697,2.9661812103729013e-10
245,74.96557853201926,4.441548629342274e-10
246,81.76825364586757,1.019406469143464e-10
247,88.57094236541987,4.0011412847809595e-10
248,95.37363108497215,3.106600861338936e-10
249,102.17630619882047,1.0992923167135822e-10
250,108.97899491837275,9.303272437346826e-11
251,115.78168363792504,9.265188306579764e-11
252,122.58435875177334,8.261071012519725e-11
253,129.38704747132562,8.551223437273876e-11
254,136.05367915111793,9.200131611622238e-11
255,136.1897361908779,9.220089305671868e-11
256,204.0805119238249,1.6962137860244765e-10
257,272.10735830223587,2.952873953939181e-10
258,340.1341910749428,5.812558908144828e-10
259,408.1610238476498,9.129016518062059e-10
260,476.18787022606074,1.2418191294431087e-09
261,544.2147029987677,1.5341597250923852e-09
262,612.2415493771787,1.8111050627513581e-09
263,680.2683821498856,2.1285676281760864e-09
264,748.2952149225927,2.4191184041575985e-09
265,816.3220613010035,2.6861261733499804e-09
266,884.3488940737104,2.9337785940127134e-09
267,952.3757404521215,3.1657094909217235e-09
268,1020.4025732248285,3.3848502354914155e-09
269,1088.4294196032395,3.593499599682876e-09
270,1156.4562523759464,3.793444096448489e-09
271,1224.4830851486533,3.986073455547555e-09
272,1292.5099315270643,4.172474968880505e-09
273,1360.5367642997712,4.353506400196643e-09
274,1496.590443450889,4.702060038225804e-09
275,1632.644122602007,5.035780064854014e-09
276,1768.697801753125,5.357391983245201e-09
277,1904.7514672985392,5.668806961526336e-09
278,2040.805146449657,5.971415453628695e-09
279,2176.8588256007747,6.266262761230589e-09
280,2312.912504751893,6.5541580441508084e-09
281,2448.966183903011,6.835743848538318e-09
282,2585.0198630541286,7.111541904466732e-09
283,2721.0735285995424,7.38198409133003e-09
284,2857.1272077506605,7.647434108280358e-09
285,2993.180886901778,7.908202549262593e-09
286,3129.2345660528963,8.164558157090994e-09
287,3265.288245204014,8.416736029989807e-09
288,3401.3419107494283,8.664943785406948e-09
289,3537.3955899005464,8.909366465488319e-09
290,3673.4492690516645,9.15017004666079e-09
291,3809.502948202782,9.387504496539422e-09
292,3945.5566273539002,9.621506098339776e-09
293,4081.610306505018,9.852299346801967e-09
294,4217.663972050432,1.0079998467392252e-08
295,4353.717651201549,1.0304708836365034e-08
296,4489.771330352668,1.0526527860166276e-08
297,4625.825009503786,1.0745545999412295e-08
298,4761.878688654903,1.0961847515960166e-08
299,4897.932354200318,1.1175511090262446e-08
300,5033.986033351435,1.1386610501015799e-08
301,5170.039712502553,1.1595214937832139e-08
302,5306.0933916536715,1.1801389539931774e-08
303,5442.147070804789,1.2005195743456132e-08
304,5578.200749955907,1.2206691600533415e-08
305,5714.254415501321,1.2405932034711424e-08
306,5850.308094652439,1.2602969224615594e-08
307,5986.361773803556,1.2797852646809935e-08
308,6122.415452954675,1.2990629394589032e-08
309,6258.469132105793,1.3181344336976326e-08
310,6394.522797651206,1.3370040246221676e-08
311,6530.576476802325,1.35567580623732e-08
312,6666.630155953442,1.3741536865057758e-08
313,6802.68383510456,1.3924414084675411e-08
314,6938.737514255678,1.4105425613605475e-08
315,7074.791179801093,1.4284605852613917e-08
316,7210.8448589522095,1.446198793067754e-08
317,7346.898538103329,1.4637603618498043e-08
318,7482.952217254446,1.4811483511769997e-08
319,7619.005896405564,1.498365707996778e-08
320,7755.059575556682,1.5154152728678145e-08
321,7891.113241102096,1.5322997829879058e-08
322,8027.166920253213,1.5490218894998224e-08
323,8163.220599404332,1.5655841453238394e-08
324,8299.27427855545,1.5819890215779526e-08
325,8435.327957706568,1.598238909433697e-08
326,8571.38162325198,1.614336120459509e-08
327,8707.435302403099,1.6302829015833625e-08
328,8843.488981554217,1.6460814245162772e-08
329,8979.542660705336,1.661733796560644e-08
330,9115.596339856453,1.6772420632906712e-08
331,9251.650019007571,1.6926082115613315e-08
332,9387.703684552984,1.7078341677203945e-08
333,9523.757363704102,1.722921812959368e-08
334,9659.81104285522,1.7378729685684565e-08
335,9795.86472200634,1.752689409347679e-08
336,9931.918401157456,1.7673728624717457e-08
337,10067.97206670287,1.7819250079375645e-08
338,10204.025745853987,1.7963474893928115e-08
339,10340.079425005106,1.810641902024327e-08
340,10476.133104156224,1.8248098029635182e-08
341,10612.186783307343,1.838852712560373e-08
342,10748.24046245846,1.8527721131278205e-08
343,10884.294128003874,1.86656944962175e-08
344,11020.34780715499,1.8802461404641886e-08
345,11156.40148630611,1.89380356470181e-08
346,11292.455165457228,1.907243071415623e-08
347,11428.508844608346,1.920565980208902e-08
348,11564.562510153759,1.933773579373497e-08
349,11700.616189304877,1.9468671351922666e-08
350,11836.669868455994,1.9598478804593064e-08
351,11972.723547607113,1.972717024764221e-08
352,12108.777226758231,1.985475751350272e-08
353,12244.83090590935,1.9981252201584835e-08
354,12380.884571454762,2.0106665639548265e-08
355,12516.938250605881,2.0231009008585937e-08
356,12652.991929756998,2.0354293200109e-08
357,12789.045608908116,2.0476528906137712e-08
358,12925.099288059235,2.059772662103768e-08
359,13061.15295360465,2.071789661466131e-08
360,13197.206632755768,2.0837049031124936e-08
361,13333.260311906884,2.095519376085725e-08
362,13469.313991058003,2.1072340532755756e-08
363,13605.36767020912,2.1188498901944446e-08
364,16326.441198808663,2.331745444897674e-08
365,19047.514727408205,2.5116829978537103e-08
366,21768.58826961345,2.663449437569986e-08
367,24489.661798212994,2.7907954733817864e-08
368,27210.735326812537,2.8967654740829277e-08
369,29931.808869017783,2.983894441778026e-08
370,32652.882397617326,3.054333878050218e-08
371,35373.95592621687,3.109936599487534e-08
372,38095.029468422115,3.152316390290984e-08
373,40816.10299702166,3.182891493264939e-08
374,43537.1765392269,3.202917276132391e-08
375,46258.25006782645,3.213511392997212e-08
376,48979.32359642599,3.2156736026917215e-08
377,51700.39713863123,3.210301669866595e-08
378,54421.47066723078,3.19820433754527e-08
379,57142.54419583032,3.1801120597760667e-08
380,59863.617738035566,3.156686004227525e-08
381,62584.691266635105,3.1285256636855936e-08
382,65305.76479523465,3.096175393148054e-08
383,68026.8383374399,3.060130027986916e-08
384,70747.91186603945,3.0208415097310326e-08
385,73468.98539463898,2.9787446937106815e-08
386,76190.05893684423,2.934267496255206e-08
387,78911.13246544376,2.8878487000808277e-08
388,81632.20599404332,2.839972505624256e-08
389,84353.27953624855,2.79121451530872e-08
390,87074.35306484811,2.7423094882002792e-08
391,89795.42659344764,2.6942453118350156e-08
392,92516.5001356529,2.648266874436896e-08
393,95237.57366425243,2.6045062702757907e-08
394,97958.64719285197,2.56269841634802e-08
395,100679.72073505721,2.52270542511301e-08
396,103400.79426365678,2.4844025359929487e-08
397,106121.86779225631,2.4476765628090477e-08
398,108842.94133446156,2.4124245544587313e-08
399,111564.0148630611,2.378552638952889e-08
400,114285.08839166064,2.3459750293070468e-08
401,117006.16193386588,2.3146131500798677e-08
402,119727.23546246543,2.2843948823203438e-08
403,122448.30900467066,2.255253901340405e-08
404,125169.38253327021,2.2271290925664486e-08
405,127890.45606186974,2.1999640414104815e-08
406,130611.529604075,2.1737065817451207e-08
407,133332.60313267456,2.1483083918130664e-08
408,136053.6766612741,2.1237246445339185e-08
409,138774.75020347934,2.099913686264416e-08
410,141495.8237320789,2.0768367572026365e-08
411,144216.89726067844,2.0544577408117723e-08
412,146937.97080288368,2.0327429345713703e-08
413,149659.04433148322,2.011660850034274e-08
414,156461.72816658777,1.9615350318306928e-08
415,163264.4120016923,1.914772513939962e-08
416,170067.0958367969,1.8710209171347933e-08
417,176869.77965829574,1.829977020877142e-08
418,183672.4634934003,1.7913783245322613e-08
419,190475.14732850486,1.754996310876272e-08
420,197277.83116360943,1.7206310181516045e-08
421,204080.51499871397,1.6881066316047582e-08
422,210883.19883381855,1.6572678805371217e-08
423,217685.88266892312,1.6279770643968144e-08
424,224488.56649042197,1.600111589220338e-08
425,231291.25032552652,1.5735619142584646e-08
426,238093.93416063106,1.5482298241854894e-08
427,244896.61799573564,1.524026976436601e-08
428,251699.30183084018,1.5008736659411934e-08
429,258501.98566594475,1.4786977745886051e-08
430,265304.6695010493,1.457433872685836e-08
431,272107.3533225482,1.4370224452922143e-08
432,278910.0371576527,1.4174092265783703e-08
433,285712.7209927573,1.3985446207187148e-08
434,292515.4048278619,1.3803832018114908e-08
435,299318.08866296645,1.3628832754189817e-08
436,306120.77249807096,1.3460064952972255e-08
437,312923.45633317553,1.3297175270273954e-08
438,319726.1401682801,1.3139837537610195e-08
439,326528.82398977893,1.2987750121908353e-08
440,333331.50782488356,1.2840633637305094e-08
441,340134.1916599881,1.2698228874321641e-08
442,346936.87549509265,1.2560294987767055e-08
443,353739.5593301972,1.2426607852507845e-08
444,360542.24316530174,1.2296958618355357e-08
445,367344.9270004063,1.2171152398326846e-08
446,374147.6108219052,1.2049007098432686e-08
