,E (eV),I (erg/s/cm**2)
0,1.360543186192048,1.6512737634021196e-09
1,2.0408011735840956,1.9341572333858204e-09
2,2.7210727666801198,2.1638074279948333e-09
3,3.401344359776144,2.3605540377177536e-09
4,4.081615952872168,2.5345153289728217e-09
5,4.761873940264215,2.6915542398742782e-09
6,5.4421455333602395,2.83543898122343e-09
7,6.122417126456264,2.96872541682081e-09
8,6.802688719552288,3.093254440868508e-09
9,7.482946706944335,3.210392709908177e-09
10,8.16321830004036,3.3212066340019395e-09
11,8.843489893136384,3.426520111079962e-09
12,9.523761486232408,9.567630960182927e-08
13,10.204019473624456,3.6231862287364797e-09
14,10.884291066720479,3.7155405376532957e-09
15,11.564562659816504,3.804437184491421e-09
16,12.244834252912527,4.264367667638191e-09
17,12.92510584600855,3.742032654568158e-09
18,13.7414208731606,1.2469940892878598e-09
19,14.421692466256623,8.337106977603552e-10
20,15.101964059352648,6.388467480015483e-10
21,15.782222046744696,5.522121587090305e-10
22,16.46249363984072,5.187059014561099e-10
23,17.142765232936743,5.10946451588941e-10
24,17.823036826032766,5.154054986640952e-10
25,18.503294813424816,5.254332514162522e-10
26,19.18356640652084,5.377780356027542e-10
27,19.863837999616862,5.508566828865127e-10
28,20.544109592712886,5.632764215296291e-10
29,21.224367580104932,5.679049898753199e-10
30,21.90463917320096,5.71206575510573e-10
31,22.584910766296982,5.739361649175868e-10
32,23.26518235939301,5.760917448748715e-10
33,23.945440346785055,5.776925631868752e-10
34,24.62571193988108,5.787689287101695e-10
35,25.305983532977105,5.793545125795914e-10
36,25.986255126073125,5.794848073712723e-10
37,26.66652671916915,5.791952950218259e-10
38,27.210741272505174,5.78684701315221e-10
39,27.3467847065612,5.785203529583173e-10
40,27.4828417463212,5.783422286332525e-10
41,27.618898786081196,5.781502990621749e-10
42,27.7549558258412,5.779448219744568e-10
43,27.89099925989722,5.777257706531738e-10
44,28.02705629965722,5.774939629674157e-10
45,28.16311333941722,5.772493651663933e-10
46,28.299170379177223,5.769922245565845e-10
47,28.435213813233247,5.767225096968358e-10
48,28.571270852993244,5.764410156413747e-10
49,28.70732789275325,5.761477040093533e-10
50,28.843384932513246,5.758428107442319e-10
51,28.97942836656927,5.755262992910386e-10
52,29.115485406329267,5.751989417745694e-10
53,29.25154244608927,5.748606945605898e-10
54,29.387599485849268,5.745117822844776e-10
55,29.523642919905292,5.741521625535013e-10
56,29.659699959665296,5.737825851712966e-10
57,29.795756999425294,5.734030005556688e-10
58,29.931814039185298,5.730136221451095e-10
59,30.067857473241315,5.726144015726124e-10
60,30.20391451300132,5.722060661873379e-10
61,30.339971552761316,5.717885607440464e-10
62,30.47602859252132,5.713620872496238e-10
63,30.612072026577344,5.709265915393175e-10
64,30.74812906633734,5.704827788173912e-10
65,30.884186106097346,5.700305879777001e-10
66,31.020243145857343,5.695702100633398e-10
67,31.156286579913367,5.691015846733732e-10
68,31.292343619673364,5.686253956090565e-10
69,31.42840065943337,5.681415761393805e-10
70,31.564457699193365,5.676503059295082e-10
71,31.70050113324939,5.671515192528005e-10
72,31.836558173009394,5.666458786234555e-10
73,31.97261521276939,5.661333116927944e-10
74,32.108672252529395,5.656139875441413e-10
75,32.244715686585415,5.650878346244638e-10
76,32.38077272634541,5.645554950872251e-10
77,32.51682976610541,5.640168910020901e-10
78,32.652886805865414,5.634111593860848e-10
79,32.78893023992144,5.626238122142532e-10
80,32.92498727968144,5.61722883913443e-10
81,33.06104431944144,5.607505206607747e-10
82,33.19710135920144,5.597333270638055e-10
83,33.33314479325746,5.586877582077265e-10
84,33.46920183301746,5.576235783605292e-10
85,33.60525887277746,5.565491590833317e-10
86,33.74131591253746,5.554682719366029e-10
87,33.87735934659349,5.543830983801211e-10
88,34.01341638635349,5.532956182492146e-10
89,34.14947342611349,5.523926286073592e-10
90,34.285530465873485,5.513058361710703e-10
91,34.421573899929506,5.50218618158091e-10
92,34.55763093968951,5.491317336374699e-10
93,34.69368797944951,5.48045167759796e-10
94,34.82974501920951,5.469594220866642e-10
95,34.96578845326554,5.458749189372282e-10
96,35.101845493025536,5.447921274948631e-10
97,35.23790253278553,5.437108765018003e-10
98,35.37395957254554,5.426312075320331e-10
99,35.51000300660156,5.415529537259338e-10
100,35.646060046361555,5.404765712470951e-10
101,35.78211708612156,5.394018900780963e-10
102,35.918174125881556,5.383289485245407e-10
103,36.054217559937584,5.374169011343193e-10
104,36.19027459969758,5.363502133651759e-10
105,36.326331639457585,5.352853858609946e-10
106,36.46238867921758,5.342224529692658e-10
107,36.59844571897758,5.33162715788945e-10
108,36.73448915303361,5.327934231724035e-10
109,36.870546192793604,5.330880489948346e-10
110,37.00660323255361,5.346702815223979e-10
111,37.142660272313606,5.371506989207434e-10
112,37.27870370636963,5.416505629195747e-10
113,37.41476074612963,5.486132006633777e-10
114,37.55081778588963,5.511946388369026e-10
115,37.686874825649625,5.629073601568181e-10
116,37.82291825970565,5.802902069093546e-10
117,37.958975299465656,6.059606239141885e-10
118,38.095032339225654,6.144066917272654e-10
119,38.23108937898566,6.547960337989073e-10
120,38.36713281304168,7.124281548868443e-10
121,38.503189852801675,7.942062076868226e-10
122,38.63924689256167,8.200232571417002e-10
123,38.77530393232168,9.454685943477678e-10
124,38.911347366377704,1.1211663687906108e-09
125,39.0474044061377,1.366083585772949e-09
126,39.183461445897706,1.440018849747086e-09
127,39.3195184856577,1.8073798084876816e-09
128,39.45556191971372,2.3141735668180765e-09
129,39.59161895947372,2.4629448698817857e-09
130,39.727675999233725,3.2135468596877885e-09
131,39.86373303899372,4.240166436390614e-09
132,39.99977647304975,4.532125838502509e-09
133,40.135833512809754,6.0326387671306325e-09
134,40.27189055256975,8.066851028354473e-09
135,40.407947592329755,1.0814884552523235e-08
136,40.54399102638577,1.1569243360359233e-08
137,40.68004806614577,1.5524768213100656e-08
138,40.81610510590577,1.6596972883976042e-08
139,40.952162145665774,5.006955966300222e-10
140,41.0882055797218,4.997159380181605e-10
141,41.2242626194818,4.987391066814443e-10
142,41.3603196592418,4.977649472753761e-10
143,41.4963766990018,4.967934699851934e-10
144,41.63242013305782,4.958245224944065e-10
145,41.76847717281782,4.949535620877014e-10
146,41.90453421257782,4.939914244559103e-10
147,42.04059125233782,4.930320093203016e-10
148,42.17663468639385,4.920751660953163e-10
149,42.31269172615385,4.911212206906396e-10
150,42.44874876591385,4.901700205227168e-10
151,42.584805805673845,4.892215723906894e-10
152,42.720849239729866,4.882757271902745e-10
153,42.85690627948987,4.873328025127537e-10
154,42.99296331924987,4.863926479075503e-10
155,43.12902035900987,4.85455268292935e-10
156,43.2650637930659,4.845205162993949e-10
157,43.401120832825896,4.835887018490114e-10
158,43.53717787258589,4.826596759706915e-10
159,43.67323491234589,4.817334423797629e-10
160,43.80927834640192,4.807006209042254e-10
161,43.945335386161915,4.796279933437193e-10
162,44.08139242592192,4.787140249015226e-10
163,44.217449465681916,4.775873148012277e-10
164,44.353492899737944,4.763787274319247e-10
165,44.48954993949794,4.754738964483298e-10
166,44.62560697925794,4.741517701829549e-10
167,44.761664019017935,4.726655862464476e-10
168,44.89770745307396,4.717657579803442e-10
169,45.03376449283397,4.700474213791191e-10
170,45.169821532593964,4.680055846409008e-10
171,45.30587857235397,4.671067011882495e-10
172,45.44192200640999,4.6461563085567726e-10
173,45.577979046169986,4.6371902581817166e-10
174,45.71403608592998,4.6060618802257843e-10
175,45.85009312568999,4.566333931271987e-10
176,45.986136559746015,4.5572790771789113e-10
177,46.12219359950601,4.5055611799288515e-10
178,46.258250639266016,4.4967478857526897e-10
179,46.394307679026014,4.428849819173615e-10
180,46.53035111308204,4.3390526012899875e-10
181,46.66640815284203,4.3301916962835095e-10
182,46.802465192602035,4.2099265718487946e-10
183,46.93852223236203,4.201756100450491e-10
184,47.07456566641806,4.0406438511125594e-10
185,47.210622706178064,3.823509786407987e-10
186,47.34667974593806,3.8162174223041913e-10
187,47.482736785698066,3.523935749290383e-10
188,47.618780219754086,3.517754976111929e-10
189,47.75483725951408,3.1247197551742827e-10
190,47.89089429927408,2.594139272606346e-10
191,48.026951339034085,2.592071439976016e-10
192,48.16299477309011,1.8798861815362326e-10
193,48.29905181285011,1.8818873067422192e-10
194,48.43506041766452,4.421871757040567e-10
195,48.43515728755569,4.4218806007631133e-10
196,48.57116589237011,4.3791810649917543e-10
197,48.707222932130115,4.371186376030855e-10
198,48.84326636618613,4.316147000367096e-10
199,48.97932340594613,4.3245132337882376e-10
200,49.11538044570613,4.2513704674433615e-10
201,49.251437485466134,4.2595843324648205e-10
202,49.38748091952216,4.1669622171849733e-10
203,49.52353795928216,4.075647449314304e-10
204,49.65959499904216,4.1188195651062924e-10
205,49.79565203880216,3.9399813886399856e-10
206,49.93169547285818,3.990328147410244e-10
207,50.06775251261818,3.7520489682283377e-10
208,50.20380955237818,3.824600860749417e-10
209,50.33986659213818,3.653741891733315e-10
210,50.47591002619421,3.573953979630845e-10
211,50.61196706595421,3.348863925438139e-10
212,50.74802410571421,3.2538988708667374e-10
213,50.884081145474205,2.9518672740863743e-10
214,51.02007355950089,2.8356383996713363e-10
215,51.02017559955957,2.835644070943221e-10
216,51.15618161929023,5.408771174328869e-10
217,51.29223865905023,5.043268263825635e-10
218,51.42829569881023,5.598685592467239e-10
219,51.56433913286626,6.247651341587757e-10
220,51.700396172626256,5.801971728466457e-10
221,51.83645321238625,6.59235918549726e-10
222,51.97251025214625,6.039279697904495e-10
223,52.10855368620228,6.982877635937846e-10
224,52.24455848141958,6.307060309479031e-10
225,52.244662970504976,6.307072923595838e-10
226,52.38066776572228,1.2014062891552988e-09
227,52.516724805482276,1.0772366515883566e-09
228,52.652768239538304,1.3634598710683693e-09
229,52.7888252792983,1.2117768971132922e-09
230,52.92482939423041,2.1835011256500454e-09
231,52.924935243886196,2.1835054926521727e-09
232,53.060939358818295,1.922851079129757e-09
233,53.19698279287432,2.56321481671848e-09
234,53.33303983263433,2.244297342294441e-09
235,53.469096872394324,3.025641581529467e-09
236,53.60515391215433,2.6374495649989878e-09
237,53.74119734621035,3.588167775208353e-09
238,53.877254385970346,4.948832070250479e-09
239,54.01331142573034,4.276193666717536e-09
240,54.14936846549035,5.9358416176034235e-09
241,54.285411899546375,5.116062447166746e-09
242,54.55752597906638,6.147928881062015e-09
243,61.36021469861866,1.9293534570010042e-10
244,68.16288981246697,1.99830543826763e-10
245,74.96557853201926,2.0734204333381667e-10
246,81.76825364586757,2.084053070472272e-10
247,88.57094236541987,2.0722341154697697e-10
248,95.37363108497215,2.0547544213626512e-10
249,102.17630619882047,2.0331876552432436e-10
250,108.97899491837275,2.0082168385360638e-10
251,115.78168363792504,1.9806247904566696e-10
252,122.58435875177334,1.9509842049745297e-10
253,129.38704747132562,1.919746011141996e-10
254,136.05367915111793,1.8879248117440724e-10
255,136.1897361908779,1.8872650017866902e-10
256,204.0805119238249,1.5422890611866932e-10
257,272.10735830223587,1.4486919324757754e-10
258,340.1341910749428,1.6035588645320907e-10
259,408.1610238476498,1.7127987340407034e-10
260,476.18787022606074,1.7956936165531052e-10
261,544.2147029987677,1.86089687947314e-10
262,612.2415493771787,1.947861786452634e-10
263,680.2683821498856,2.1156275678844212e-10
264,748.2952149225927,2.2780159108816186e-10
265,816.3220613010035,2.435488381409592e-10
266,884.3488940737104,2.5887507532566744e-10
267,952.3757404521215,2.73833163916207e-10
268,1020.4025732248285,2.884638763036784e-10
269,1088.4294196032395,3.0279953508118465e-10
270,1156.4562523759464,3.1686633999021724e-10
271,1224.4830851486533,3.306859770254886e-10
272,1292.5099315270643,3.442766969999578e-10
273,1360.5367642997712,3.5765407478360067e-10
274,1496.590443450889,3.838210175037255e-10
275,1632.644122602007,4.0927602370449323e-10
276,1768.697801753125,4.340895071633901e-10
277,1904.7514672985392,4.583185863780433e-10
278,2040.805146449657,4.820106153276778e-10
279,2176.8588256007747,5.052055201675629e-10
280,2312.912504751893,5.279374564034883e-10
281,2448.966183903011,5.502359889459494e-10
282,2585.0198630541286,5.721269686878754e-10
283,2721.0735285995424,5.936331946417599e-10
284,2857.1272077506605,6.147749379019879e-10
285,2993.180886901778,6.355703281125578e-10
286,3129.2345660528963,6.560356863405754e-10
287,3265.288245204014,6.761857818518155e-10
288,3401.3419107494283,6.960340421625997e-10
289,3537.3955899005464,7.155927387755091e-10
290,3673.4492690516645,7.34873116289356e-10
291,3809.502948202782,7.538855262617196e-10
292,3945.5566273539002,7.72639527841804e-10
293,4081.610306505018,7.911439762616435e-10
294,4217.663972050432,8.094070955976694e-10
295,4353.717651201549,8.274365542650619e-10
296,4489.771330352668,8.452395065952568e-10
297,4625.825009503786,8.628226513133947e-10
298,4761.878688654903,8.80192273565681e-10
299,4897.932354200318,8.97354278383395e-10
300,5033.986033351435,9.14314235901856e-10
301,5170.039712502553,9.310773944254266e-10
302,5306.0933916536715,9.476487174780663e-10
303,5442.147070804789,9.640329045523076e-10
304,5578.200749955907,9.802344127131167e-10
305,5714.254415501321,9.962574713564138e-10
306,5850.308094652439,1.0121061106595946e-09
307,5986.361773803556,1.0277841609374496e-09
308,6122.415452954675,1.0432952766852904e-09
309,6258.469132105793,1.0586429470425519e-09
310,6394.522797651206,1.0738305042104616e-09
311,6530.576476802325,1.0888611432294316e-09
312,6666.630155953442,1.1037379176621235e-09
313,6802.68383510456,1.1184637575202071e-09
314,6938.737514255678,1.1330414746673422e-09
315,7074.791179801093,1.1474737679066427e-09
316,7210.8448589522095,1.1617632393372768e-09
317,7346.898538103329,1.1759123853828693e-09
318,7482.952217254446,1.189923613384604e-09
319,7619.005896405564,1.2037992430381346e-09
320,7755.059575556682,1.217541512337796e-09
321,7891.113241102096,1.2311525792714116e-09
322,8027.166920253213,1.2446345349013425e-09
323,8163.220599404332,1.2579893941305546e-09
324,8299.27427855545,1.271219108278003e-09
325,8435.327957706568,1.2843255658910198e-09
326,8571.38162325198,1.2973105940747323e-09
327,8707.435302403099,1.3101759692053825e-09
328,8843.488981554217,1.3229234085502484e-09
329,8979.542660705336,1.335554579069108e-09
330,9115.596339856453,1.3480710999919691e-09
331,9251.650019007571,1.360474543168899e-09
332,9387.703684552984,1.3727664344996159e-09
333,9523.757363704102,1.3849482632312156e-09
334,9659.81104285522,1.3970214717195781e-09
335,9795.86472200634,1.4089874659586352e-09
336,9931.918401157456,1.4208476143992176e-09
337,10067.97206670287,1.4326032483520484e-09
338,10204.025745853987,1.444255670403223e-09
339,10340.079425005106,1.4558061450404115e-09
340,10476.133104156224,1.4672559067208848e-09
341,10612.186783307343,1.478606159901396e-09
342,10748.24046245846,1.4898580804170152e-09
343,10884.294128003874,1.5010128140313541e-09
344,11020.34780715499,1.5120714854873674e-09
345,11156.40148630611,1.5230351881928126e-09
346,11292.455165457228,1.5339049917984457e-09
347,11428.508844608346,1.544681943313417e-09
348,11564.562510153759,1.5553670638754358e-09
349,11700.616189304877,1.5659613587307105e-09
350,11836.669868455994,1.5764658051560862e-09
351,11972.723547607113,1.5868813625196286e-09
352,12108.777226758231,1.597208969040357e-09
353,12244.83090590935,1.6074495453456707e-09
354,12380.884571454762,1.6176039898991963e-09
355,12516.938250605881,1.627673189440853e-09
356,12652.991929756998,1.6376580078325677e-09
357,12789.045608908116,1.6475592937189819e-09
358,12925.099288059235,1.6573778787799164e-09
359,13061.15295360465,1.6671145782204168e-09
360,13197.206632755768,1.676770196445395e-09
361,13333.260311906884,1.6863455179045275e-09
362,13469.313991058003,1.6958413145167236e-09
363,13605.36767020912,1.7052583435161601e-09
364,16326.441198808663,1.8781168489104865e-09
365,19047.514727408205,2.024684835828944e-09
366,21768.58826961345,2.1487563757781383e-09
367,24489.661798212994,2.2533029194724542e-09
368,27210.735326812537,2.3407356827579324e-09
369,29931.808869017783,2.4130623354824205e-09
370,32652.882397617326,2.471987059189352e-09
371,35373.95592621687,2.5189779187125833e-09
372,38095.029468422115,2.5553141977695576e-09
373,40816.10299702166,2.5821208600142638e-09
374,43537.1765392269,2.6003944167077974e-09
375,46258.25006782645,2.611022813716222e-09
376,48979.32359642599,2.614801090127564e-09
377,51700.39713863123,2.6124439178259946e-09
378,54421.47066723078,2.60459582304646e-09
379,57142.54419583032,2.591839641416634e-09
380,59863.617738035566,2.5747035939844627e-09
381,62584.691266635105,2.55366727454388e-09
382,65305.76479523465,2.529166779637696e-09
383,68026.8383374399,2.501599123570023e-09
384,70747.91186603945,2.471326081857822e-09
385,73468.98539463898,2.438677556461889e-09
386,76190.05893684423,2.403954537594153e-09
387,78911.13246544376,2.367431724204854e-09
388,81632.20599404332,2.3293598654765413e-09
389,84353.27953624855,2.290077626035329e-09
390,87074.35306484811,2.2502505799023293e-09
391,89795.42659344764,2.2108102214457486e-09
392,92516.5001356529,2.173050121888221e-09
393,95237.57366425243,2.1371285653032822e-09
394,97958.64719285197,2.102809977056203e-09
395,100679.72073505721,2.0699811677556894e-09
396,103400.79426365678,2.0385397241761548e-09
397,106121.86779225631,2.0083927329395016e-09
398,108842.94133446156,1.979455683958721e-09
399,111564.0148630611,1.9516515201053494e-09
400,114285.08839166064,1.924909818968099e-09
401,117006.16193386588,1.89916608038532e-09
402,119727.23546246543,1.8743611034746603e-09
403,122448.30900467066,1.8504404430896054e-09
404,125169.38253327021,1.8273539320454229e-09
405,127890.45606186974,1.805055260649412e-09
406,130611.529604075,1.7835016061043855e-09
407,133332.60313267456,1.7626533032814089e-09
408,136053.6766612741,1.7424735535503847e-09
409,138774.75020347934,1.7229281647882907e-09
410,141495.8237320789,1.703985320219851e-09
411,144216.89726067844,1.6856153715758997e-09
412,146937.97080288368,1.6677906544415003e-09
413,149659.04433148322,1.6504853198348178e-09
414,156461.72816658777,1.6093393311472382e-09
415,163264.4120016923,1.5709541735157277e-09
416,170067.0958367969,1.5350405883262818e-09
417,176869.77965829574,1.5013496681266086e-09
418,183672.4634934003,1.4696659336557988e-09
419,190475.14732850486,1.4398018007112753e-09
420,197277.83116360943,1.411593125111798e-09
421,204080.51499871397,1.3848955866556203e-09
422,210883.19883381855,1.3595817270882045e-09
423,217685.88266892312,1.3355385113588041e-09
424,224488.56649042197,1.3126653066254248e-09
425,231291.25032552652,1.2908721933713803e-09
426,238093.93416063106,1.2700785496602072e-09
427,244896.61799573564,1.2502118575247538e-09
428,251699.30183084018,1.2312066896150494e-09
429,258501.98566594475,1.2130038465848203e-09
430,265304.6695010493,1.1955496192620356e-09
431,272107.3533225482,1.178795153615753e-09
432,278910.0371576527,1.162695904120422e-09
433,285712.7209927573,1.1472111600184616e-09
434,292515.4048278619,1.1323036321499393e-09
435,299318.08866296645,1.1179390949454038e-09
436,306120.77249807096,1.1040860712869077e-09
437,312923.45633317553,1.0907155569110909e-09
438,319726.1401682801,1.0778007768610755e-09
439,326528.82398977893,1.065316971797075e-09
440,333331.50782488356,1.0532412079021827e-09
441,340134.1916599881,1.0415522074248876e-09
442,346936.87549509265,1.0302302001840284e-09
443,353739.5593301972,1.0192567886031999e-09
444,360542.24316530174,1.0086148293197768e-09
445,367344.9270004063,9.982883241196027e-10
446,374147.6108219052,9.882623262128953e-10
447,380950.2946570097,9.785228518006855e-10
448,387752.9784921143,9.69056802938535e-10
