,E (eV),I (erg/s/cm**2)
0,1.360543186192048,6.115855009111939e-09
1,2.0408011735840956,7.1635760625430245e-09
2,2.7210727666801198,8.014135992228114e-09
3,3.401344359776144,8.742830265837627e-09
4,4.081615952872168,9.38713411276063e-09
5,4.761873940264215,9.968762205793815e-09
6,5.4421455333602395,1.05016709407522e-08
7,6.122417126456264,1.0995326525223814e-08
8,6.802688719552288,1.1456547112858512e-08
9,7.482946706944335,1.1890394416281303e-08
10,8.16321830004036,1.2300818119345462e-08
11,8.843489893136384,8.726777118384617e-08
12,9.523761486232408,3.7975504287232527e-07
13,10.204019473624456,1.3419265867466946e-08
14,10.884291066720479,1.3761320331996394e-08
15,11.564562659816504,1.5157220539874655e-08
16,12.244834252912527,1.4915476369136523e-08
17,12.92510584600855,1.2712306351842157e-08
18,13.7414208731606,4.88834547323381e-09
19,14.421692466256623,3.2986428115515203e-09
20,15.101964059352648,2.5519508722003447e-09
21,15.782222046744696,2.221119668910103e-09
22,16.46249363984072,2.0933468049596106e-09
23,17.142765232936743,2.0633067327379282e-09
24,17.823036826032766,2.0791889962072406e-09
25,18.503294813424816,2.115652363172119e-09
26,19.18356640652084,2.160379840954054e-09
27,19.863837999616862,2.20739641445383e-09
28,20.544109592712886,2.2501472387192298e-09
29,21.224367580104932,2.2624607170214156e-09
30,21.90463917320096,2.2697977403725316e-09
31,22.584910766296982,2.2749061532964305e-09
32,23.26518235939301,2.2778161626216048e-09
33,23.945440346785055,2.278633156721779e-09
34,24.62571193988108,2.277499966272706e-09
35,25.305983532977105,2.2745678978125847e-09
36,25.986255126073125,2.2699915332776696e-09
37,26.66652671916915,2.2639220822705603e-09
38,27.210741272505174,2.2580890308151067e-09
39,27.3467847065612,2.256503529186066e-09
40,27.4828417463212,2.254870766061337e-09
41,27.618898786081196,2.2531906735568965e-09
42,27.7549558258412,2.2514643007710623e-09
43,27.89099925989722,2.2496915867540392e-09
44,28.02705629965722,2.2478757533656194e-09
45,28.16311333941722,2.2460167061390564e-09
46,28.299170379177223,2.2441154401606367e-09
47,28.435213813233247,2.2421718630520433e-09
48,28.571270852993244,2.239785021036065e-09
49,28.70732789275325,2.2365218876013723e-09
50,28.843384932513246,2.232720318633817e-09
51,28.97942836656927,2.228561844693759e-09
52,29.115485406329267,2.2242232680520607e-09
53,29.25154244608927,2.2197704172209567e-09
54,29.387599485849268,2.215244774473178e-09
55,29.523642919905292,2.2106687664899396e-09
56,29.659699959665296,2.2060622662826815e-09
57,29.795756999425294,2.20143608177975e-09
58,29.931814039185298,2.1975455906784863e-09
59,30.067857473241315,2.1929084794525564e-09
60,30.20391451300132,2.1882649208763276e-09
61,30.339971552761316,2.1836161931884166e-09
62,30.47602859252132,2.1789632339552214e-09
63,30.612072026577344,2.17430845284942e-09
64,30.74812906633734,2.169656219226518e-09
65,30.884186106097346,2.1650058712264216e-09
66,31.020243145857343,2.1603577138075183e-09
67,31.156286579913367,2.1557111071978806e-09
68,31.292343619673364,2.1510682341744524e-09
69,31.42840065943337,2.1470618544659196e-09
70,31.564457699193365,2.1424382250361637e-09
71,31.70050113324939,2.137817387443552e-09
72,31.836558173009394,2.1332014551781073e-09
73,31.97261521276939,2.128589771156909e-09
74,32.108672252529395,2.1239825987286837e-09
75,32.244715686585415,2.1193793000929536e-09
76,32.38077272634541,2.1147819211637334e-09
77,32.51682976610541,2.110189809389573e-09
78,32.652886805865414,2.1056032066628543e-09
79,32.78893023992144,2.101021477599178e-09
80,32.92498727968144,2.0964466033622752e-09
81,33.06104431944144,2.0924168370206254e-09
82,33.19710135920144,2.087864448352236e-09
83,33.33314479325746,2.083317895586404e-09
84,33.46920183301746,2.078779095447254e-09
85,33.60525887277746,2.074247397617601e-09
86,33.74131591253746,2.069723003210518e-09
87,33.87735934659349,2.0652053829243695e-09
88,34.01341638635349,2.0607121750439844e-09
89,34.14947342611349,2.056252750937489e-09
90,34.285530465873485,2.051827096294652e-09
91,34.421573899929506,2.0474325605936407e-09
92,34.55763093968951,2.043013125358045e-09
93,34.69368797944951,2.0391637932249083e-09
94,34.82974501920951,2.0349534613632578e-09
95,34.96578845326554,2.030865634675047e-09
96,35.101845493025536,2.0269571505166e-09
97,35.23790253278553,2.0232975111442684e-09
98,35.37395957254554,2.019194868508151e-09
99,35.51000300660156,2.016028616915762e-09
100,35.646060046361555,2.013421494972299e-09
101,35.78211708612156,2.011602195279345e-09
102,35.918174125881556,2.010892377775535e-09
103,36.054217559937584,2.0078872453136774e-09
104,36.19027459969758,2.0092942055888478e-09
105,36.326331639457585,2.0130951239832376e-09
106,36.46238867921758,2.020616852206034e-09
107,36.59844571897758,2.020362039495149e-09
108,36.73448915303361,2.033701852570503e-09
109,36.870546192793604,2.054013826606794e-09
110,37.00660323255361,2.083891137941648e-09
111,37.142660272313606,2.091244380023271e-09
112,37.27870370636963,2.1385455927126406e-09
113,37.41476074612963,2.205248900076772e-09
114,37.55081778588963,2.2983393937972947e-09
115,37.686874825649625,2.326041782226823e-09
116,37.82291825970565,2.466389015344521e-09
117,37.958975299465656,2.6585275032626774e-09
118,38.095032339225654,2.7167335528135013e-09
119,38.23108937898566,2.9986822541370348e-09
120,38.36713281304168,3.380966024041047e-09
121,38.503189852801675,3.896118463718478e-09
122,38.63924689256167,4.0519453451700416e-09
123,38.77530393232168,4.797665751726157e-09
124,38.911347366377704,5.790535137736135e-09
125,39.0474044061377,6.085393155490051e-09
126,39.183461445897706,7.498088812842583e-09
127,39.3195184856577,9.369050211374449e-09
128,39.45556191971372,9.912626911434812e-09
129,39.59161895947372,1.2545105697735436e-08
130,39.727675999233725,1.6003011128271312e-08
131,39.86373303899372,1.698338947231259e-08
132,39.99977647304975,2.1799448797104586e-08
133,40.135833512809754,2.3146595989583985e-08
134,40.27189055256975,2.981119217874453e-08
135,40.407947592329755,3.8462580717239386e-08
136,40.54399102638577,4.082033160567151e-08
137,40.68004806614577,5.268998559270075e-08
138,40.81610510590577,5.5876193435259264e-08
139,40.952162145665774,1.8462579997874201e-09
140,41.0882055797218,1.8423377538807985e-09
141,41.2242626194818,1.83843073455088e-09
142,41.3603196592418,1.834536347567491e-09
143,41.4963766990018,1.8306546108489176e-09
144,41.63242013305782,1.8267849419955336e-09
145,41.76847717281782,1.8231630693495171e-09
146,41.90453421257782,1.8193221975148698e-09
147,42.04059125233782,1.8154940351752322e-09
148,42.17663468639385,1.8116780067130931e-09
149,42.31269172615385,1.8078752910187863e-09
150,42.44874876591385,1.8040853072966378e-09
151,42.584805805673845,1.8003080592414512e-09
152,42.720849239729866,1.7965429778528624e-09
153,42.85690627948987,1.7925788207848268e-09
154,42.99296331924987,1.788542691675111e-09
155,43.12902035900987,1.7848127640366793e-09
156,43.2650637930659,1.780682277444169e-09
157,43.401120832825896,1.7764040135106034e-09
158,43.53717787258589,1.7727066774108662e-09
159,43.67323491234589,1.7682666801031631e-09
160,43.80927834640192,1.7645903297547708e-09
161,43.945335386161915,1.759829443412753e-09
162,44.08139242592192,1.7546656793169007e-09
163,44.217449465681916,1.751017491333693e-09
164,44.353492899737944,1.7453062340265212e-09
165,44.48954993949794,1.7388390949507232e-09
166,44.62560697925794,1.7352147279671445e-09
167,44.761664019017935,1.727723448992024e-09
168,44.89770745307396,1.7240912908278586e-09
169,45.03376449283397,1.7152110738523715e-09
170,45.169821532593964,1.7044047940035195e-09
171,45.30587857235397,1.7008289451993197e-09
172,45.44192200640999,1.6874817877738104e-09
173,45.577979046169986,1.6838693325443788e-09
174,45.71403608592998,1.6671905133558737e-09
175,45.85009312568999,1.6635618031471178e-09
176,45.986136559746015,1.6422033638062187e-09
177,46.12219359950601,1.6149303614250582e-09
178,46.258250639266016,1.6112968031160481e-09
179,46.394307679026014,1.5760095189257661e-09
180,46.53035111308204,1.5723865519764225e-09
181,46.66640815284203,1.52647022922648e-09
182,46.802465192602035,1.5228977827919515e-09
183,46.93852223236203,1.4624661776991973e-09
184,47.07456566641806,1.4594787314012224e-09
185,47.210622706178064,1.3804447795862586e-09
186,47.34667974593806,1.2775478837756478e-09
187,47.482736785698066,1.27429628522069e-09
188,47.618780219754086,1.1407715011224517e-09
189,47.75483725951408,1.1382861240062713e-09
190,47.89089429927408,9.625498729385587e-10
191,48.026951339034085,9.61234470365892e-10
192,48.16299477309011,7.312153612809883e-10
193,48.29905181285011,7.311604888972612e-10
194,48.43506041766452,1.6244339064037733e-09
195,48.43515728755569,1.6244371552638833e-09
196,48.57116589237011,1.6370751988615271e-09
197,48.707222932130115,1.6103265615780844e-09
198,48.84326636618613,1.6259731377842882e-09
199,48.97932340594613,1.5917378905313548e-09
200,49.11538044570613,1.6081514696008814e-09
201,49.251437485466134,1.5648244579615507e-09
202,49.38748091952216,1.5890916386476809e-09
203,49.52353795928216,1.533535759713843e-09
204,49.65959499904216,1.51146235043212e-09
205,49.79565203880216,1.5532045962635166e-09
206,49.93169547285818,1.4587126422010091e-09
207,50.06775251261818,1.5132107494627367e-09
208,50.20380955237818,1.392220417037097e-09
209,50.33986659213818,1.4589156397253167e-09
210,50.47591002619421,1.3041552988367205e-09
211,50.61196706595421,1.3840617635767762e-09
212,50.74802410571421,1.1864390894844102e-09
213,50.884081145474205,1.2865804054835915e-09
214,51.02007355950089,1.2287465601746516e-09
215,51.02017559955957,1.2287490176656424e-09
216,51.15618161929023,2.302101319069458e-09
217,51.29223865905023,2.1487917136424956e-09
218,51.42829569881023,2.4348623104762403e-09
219,51.56433913286626,2.2472188745036086e-09
220,51.700396172626256,2.592431537285136e-09
221,51.83645321238625,2.3626529298933685e-09
222,51.97251025214625,2.777216075291902e-09
223,52.10855368620228,2.496113884188431e-09
224,52.24455848141958,3.1358330904276716e-09
225,52.244662970504976,3.1358393620919574e-09
226,52.38066776572228,4.072162291283783e-09
227,52.516724805482276,5.251488951286169e-09
228,52.652768239538304,4.5926767144944606e-09
229,52.7888252792983,6.037731167660559e-09
230,52.92482939423041,7.007044400748758e-09
231,52.924935243886196,7.007058414837161e-09
232,53.060939358818295,9.358427707230994e-09
233,53.19698279287432,8.186843522250013e-09
234,53.33303983263433,1.1060011714674922e-08
235,53.469096872394324,9.629709372175548e-09
236,53.60515391215433,1.3146594402513565e-08
237,53.74119734621035,1.1403348454350044e-08
238,53.877254385970346,1.5706684724209178e-08
239,54.01331142573034,1.3579867385935743e-08
240,54.14936846549035,1.8858798259857038e-08
241,54.285411899546375,1.6260223002701045e-08
242,54.55752597906638,1.9588994719215532e-08
243,61.36021469861866,6.645444998070058e-10
244,68.16288981246697,6.89151372917249e-10
245,74.96557853201926,7.15505680355374e-10
246,81.76825364586757,7.17773646150444e-10
247,88.57094236541987,7.149253742219388e-10
248,95.37363108497215,7.103812984015567e-10
249,102.17630619882047,7.044041467789664e-10
250,108.97899491837275,6.972564275578432e-10
251,115.78168363792504,6.891134304889411e-10
252,122.58435875177334,6.801977020415041e-10
253,129.38704747132562,6.70672640718904e-10
254,136.05367915111793,6.608580743217405e-10
255,136.1897361908779,6.606534969798039e-10
256,204.0805119238249,5.492053108346567e-10
257,272.10735830223587,5.269878254735581e-10
258,340.1341910749428,5.872561827804817e-10
259,408.1610238476498,6.295300733837148e-10
260,476.18787022606074,6.613088824090962e-10
261,544.2147029987677,6.867367545662024e-10
262,612.2415493771787,7.230193157477275e-10
263,680.2683821498856,7.856969491682429e-10
264,748.2952149225927,8.462785627185728e-10
265,816.3220613010035,9.049771261684587e-10
266,884.3488940737104,9.620712986054357e-10
267,952.3757404521215,1.0177684242009938e-09
268,1020.4025732248285,1.072227429973545e-09
269,1088.4294196032395,1.125573576457461e-09
270,1156.4562523759464,1.1779078690209448e-09
271,1224.4830851486533,1.2293135276855664e-09
272,1292.5099315270643,1.279860307929092e-09
273,1360.5367642997712,1.3296075329545027e-09
274,1496.590443450889,1.426901479993332e-09
275,1632.644122602007,1.5215330322318219e-09
276,1768.697801753125,1.6137676501301707e-09
277,1904.7514672985392,1.7038200552815737e-09
278,2040.805146449657,1.7918678865888666e-09
279,2176.8588256007747,1.878060685547326e-09
280,2312.912504751893,1.9625262258250406e-09
281,2448.966183903011,2.0453750090382674e-09
282,2585.0198630541286,2.126703591261795e-09
283,2721.0735285995424,2.2065970799381588e-09
284,2857.1272077506605,2.28513111804713e-09
285,2993.180886901778,2.3623733341077857e-09
286,3129.2345660528963,2.4383845960710367e-09
287,3265.288245204014,2.5132199744480022e-09
288,3401.3419107494283,2.586929528102442e-09
289,3537.3955899005464,2.659559000977306e-09
290,3673.4492690516645,2.7311503067889266e-09
291,3809.502948202782,2.8017420264395773e-09
292,3945.5566273539002,2.8713697890068426e-09
293,4081.610306505018,2.940066594788042e-09
294,4217.663972050432,3.007863094488692e-09
295,4353.717651201549,3.074787867957435e-09
296,4489.771330352668,3.1408675766936765e-09
297,4625.825009503786,3.2061271885801545e-09
298,4761.878688654903,3.270590125906527e-09
299,4897.932354200318,3.334278399013267e-09
300,5033.986033351435,3.3972127667649577e-09
301,5170.039712502553,3.459412793396441e-09
302,5306.0933916536715,3.5208969800202782e-09
303,5442.147070804789,3.5816828439429787e-09
304,5578.200749955907,3.641786999730629e-09
305,5714.254415501321,3.7012252157715225e-09
306,5850.308094652439,3.760012514936051e-09
307,5986.361773803556,3.818163178960848e-09
308,6122.415452954675,3.875690834480773e-09
309,6258.469132105793,3.932608490998943e-09
310,6394.522797651206,3.98892857209433e-09
311,6530.576476802325,4.044662994413411e-09
312,6666.630155953442,4.099823144398099e-09
313,6802.68383510456,4.154419949462397e-09
314,6938.737514255678,4.208463898178199e-09
315,7074.791179801093,4.261965056340225e-09
316,7210.8448589522095,4.314933128636155e-09
317,7346.898538103329,4.367377430336804e-09
318,7482.952217254446,4.4193069390334975e-09
319,7619.005896405564,4.4707303099498835e-09
320,7755.059575556682,4.5216558941297194e-09
321,7891.113241102096,4.572091742660649e-09
322,8027.166920253213,4.622045657299645e-09
323,8163.220599404332,4.671525158364997e-09
324,8299.27427855545,4.720537526146844e-09
325,8435.327957706568,4.769089809274112e-09
326,8571.38162325198,4.81718882757275e-09
327,8707.435302403099,4.8648412107531344e-09
328,8843.488981554217,4.912053369524385e-09
329,8979.542660705336,4.958831524929386e-09
330,9115.596339856453,5.005181722440944e-09
331,9251.650019007571,5.0511098310632205e-09
332,9387.703684552984,5.096621546313059e-09
333,9523.757363704102,5.1417224282066685e-09
334,9659.81104285522,5.186417864512725e-09
335,9795.86472200634,5.230713102737975e-09
336,9931.918401157456,5.274613256486091e-09
337,10067.97206670287,5.318123293753332e-09
338,10204.025745853987,5.361248081463488e-09
339,10340.079425005106,5.403992342223907e-09
340,10476.133104156224,5.44636068544584e-09
341,10612.186783307343,5.488357611212e-09
342,10748.24046245846,5.5299875129585386e-09
343,10884.294128003874,5.571254668257845e-09
344,11020.34780715499,5.612163281328502e-09
345,11156.40148630611,5.652717434538745e-09
346,11292.455165457228,5.692921126846665e-09
347,11428.508844608346,5.732778270215383e-09
348,11564.562510153759,5.77229267887386e-09
349,11700.616189304877,5.811468108996434e-09
350,11836.669868455994,5.850308213934707e-09
351,11972.723547607113,5.888816577541039e-09
352,12108.777226758231,5.926996708887521e-09
353,12244.83090590935,5.9648520446206236e-09
354,12380.884571454762,6.002385945606968e-09
355,12516.938250605881,6.03960172755457e-09
356,12652.991929756998,6.076502616788193e-09
357,12789.045608908116,6.113091785595055e-09
358,12925.099288059235,6.149372345833072e-09
359,13061.15295360465,6.185347342294173e-09
360,13197.206632755768,6.22101978362699e-09
361,13333.260311906884,6.256392602737538e-09
362,13469.313991058003,6.291468685749952e-09
363,13605.36767020912,6.3262508654785754e-09
364,16326.441198808663,6.964135405600129e-09
365,19047.514727408205,7.503971275951128e-09
366,21768.58826961345,7.95995863242703e-09
367,24489.661798212994,8.343223441980949e-09
368,27210.735326812537,8.6627961605834e-09
369,29931.808869017783,8.926196524029211e-09
370,32652.882397617326,9.139807244382891e-09
371,35373.95592621687,9.309125803587105e-09
372,38095.029468422115,9.438941489612842e-09
373,40816.10299702166,9.533464396669438e-09
374,43537.1765392269,9.596422309394376e-09
375,46258.25006782645,9.63113526048251e-09
376,48979.32359642599,9.64057426144893e-09
377,51700.39713863123,9.627408376973583e-09
378,54421.47066723078,9.594043131034146e-09
379,57142.54419583032,9.542652271470504e-09
380,59863.617738035566,9.475204379410073e-09
381,62584.691266635105,9.393485408706009e-09
382,65305.76479523465,9.299117976232344e-09
383,68026.8383374399,9.193578000494924e-09
384,70747.91186603945,9.078209167844195e-09
385,73468.98539463898,8.954235613241113e-09
386,76190.05893684423,8.822776032682373e-09
387,78911.13246544376,8.685031944618599e-09
388,81632.20599404332,8.542424871396043e-09
389,84353.27953624855,8.396646158173583e-09
390,87074.35306484811,8.249912661874084e-09
391,89795.42659344764,8.105312515209414e-09
392,92516.5001356529,7.966948946327104e-09
393,95237.57366425243,7.8352817460294e-09
394,97958.64719285197,7.709490026057158e-09
395,100679.72073505721,7.589158910152001e-09
396,103400.79426365678,7.473913012797518e-09
397,106121.86779225631,7.363411775110805e-09
398,108842.94133446156,7.257345435005845e-09
399,111564.0148630611,7.155431550705251e-09
400,114285.08839166064,7.057411999730262e-09
401,117006.16193386588,6.963050364146185e-09
402,119727.23546246543,6.87212964885853e-09
403,122448.30900467066,6.784450295594357e-09
404,125169.38253327021,6.699828420514863e-09
405,127890.45606186974,6.618094282511417e-09
406,130611.529604075,6.539090920068365e-09
407,133332.60313267456,6.462672946053836e-09
408,136053.6766612741,6.388705478960685e-09
409,138774.75020347934,6.317063194347022e-09
410,141495.8237320789,6.247629468721403e-09
411,144216.89726067844,6.180295631638241e-09
412,146937.97080288368,6.114960281575452e-09
413,149659.04433148322,6.0515286729097684e-09
414,156461.72816658777,5.900710568174071e-09
415,163264.4120016923,5.7600120035570715e-09
416,170067.0958367969,5.628372737277134e-09
417,176869.77965829574,5.504880429823341e-09
418,183672.4634934003,5.388745264293633e-09
419,190475.14732850486,5.279279673793523e-09
420,197277.83116360943,5.17588200880934e-09
421,204080.51499871397,5.0780232767617256e-09
422,210883.19883381855,4.985236295560743e-09
423,217685.88266892312,4.897106747205294e-09
424,224488.56649042197,4.813265772279021e-09
425,231291.25032552652,4.733383780467695e-09
426,238093.93416063106,4.657165262168017e-09
427,244896.61799573564,4.584344408968354e-09
428,251699.30183084018,4.514681403589965e-09
429,258501.98566594475,4.447959257874731e-09
430,265304.6695010493,4.383981105158717e-09
431,272107.3533225482,4.322567875686164e-09
432,278910.0371576527,4.2635562948066336e-09
433,285712.7209927573,4.206797137581068e-09
434,292515.4048278619,4.1521537271314214e-09
435,299318.08866296645,4.099500610609675e-09
436,306120.77249807096,4.0487224127645255e-09
437,312923.45633317553,3.999712820917227e-09
438,319726.1401682801,3.952373694132147e-09
439,326528.82398977893,3.906614278106254e-09
440,333331.50782488356,3.862350512897517e-09
441,340134.1916599881,3.819504405440817e-09
442,346936.87549509265,3.778003489763666e-09
443,353739.5593301972,3.7377803330545546e-09
444,360542.24316530174,3.6987720947782022e-09
445,367344.9270004063,3.6609201364138275e-09
446,374147.6108219052,3.6241696718337e-09
447,380950.2946570097,3.588469444869776e-09
448,387752.9784921143,3.5537714441023688e-09
