,E (eV),I (erg/s/cm**2)
0,1.360543186192048,5.1652811097532234e-09
1,2.0408011735840956,6.0501571830929445e-09
2,2.7210727666801198,6.768516452724105e-09
3,3.401344359776144,7.38395137730168e-09
4,4.081615952872168,7.928112493694127e-09
5,4.761873940264215,8.419339410841452e-09
6,5.4421455333602395,8.869419312637996e-09
7,6.122417126456264,9.286347094836295e-09
8,6.802688719552288,9.675881180453001e-09
9,7.482946706944335,1.0042296551247163e-08
10,8.16321830004036,1.0388929000393566e-08
11,8.843489893136384,6.855212287092782e-08
12,9.523761486232408,3.1615073126844405e-07
13,10.204019473624456,1.1333538873748991e-08
14,10.884291066720479,1.1622428564807456e-08
15,11.564562659816504,1.2872290438103317e-08
16,12.244834252912527,1.266719312182225e-08
17,12.92510584600855,1.0773465638114254e-08
18,13.7414208731606,4.0737455028578666e-09
19,14.421692466256623,2.7450779454151744e-09
20,15.101964059352648,2.1206362268598497e-09
21,15.782222046744696,1.8438238537204737e-09
22,16.46249363984072,1.7368876073869256e-09
23,17.142765232936743,1.7117963090344614e-09
24,17.823036826032766,1.725218231069624e-09
25,18.503294813424816,1.7559434129922472e-09
26,19.18356640652084,1.7936534843181859e-09
27,19.863837999616862,1.833343786839417e-09
28,20.544109592712886,1.869707889749604e-09
29,21.224367580104932,1.8806429817733498e-09
30,21.90463917320096,1.8874242937998853e-09
31,22.584910766296982,1.892344235690257e-09
32,23.26518235939301,1.8954235681089e-09
33,23.945440346785055,1.8967467167255046e-09
34,24.62571193988108,1.8964300398343993e-09
35,25.305983532977105,1.8945975323878045e-09
36,25.986255126073125,1.8913763860631745e-09
37,26.66652671916915,1.8868913788195213e-09
38,27.210741272505174,1.8824740618398274e-09
39,27.3467847065612,1.8812616089129078e-09
40,27.4828417463212,1.8800089258783137e-09
41,27.618898786081196,1.878715953246094e-09
42,27.7549558258412,1.877383562987421e-09
43,27.89099925989722,1.8760116990916256e-09
44,28.02705629965722,1.874603046753131e-09
45,28.16311333941722,1.8731575247603325e-09
46,28.299170379177223,1.8716759593894903e-09
47,28.435213813233247,1.870158273152839e-09
48,28.571270852993244,1.8686070661295427e-09
49,28.70732789275325,1.8670222319442047e-09
50,28.843384932513246,1.8654045543384254e-09
51,28.97942836656927,1.863753930579632e-09
52,29.115485406329267,1.8617079412998404e-09
53,29.25154244608927,1.8589719038421115e-09
54,29.387599485849268,1.8558066703318534e-09
55,29.523642919905292,1.8523655729638735e-09
56,29.659699959665296,1.848780676648919e-09
57,29.795756999425294,1.8451045058742828e-09
58,29.931814039185298,1.8413702638840567e-09
59,30.067857473241315,1.837596790128844e-09
60,30.20391451300132,1.8337982984723665e-09
61,30.339971552761316,1.8299844722238895e-09
62,30.47602859252132,1.8267809816325712e-09
63,30.612072026577344,1.8229594262021127e-09
64,30.74812906633734,1.819133698406985e-09
65,30.884186106097346,1.8153040114021934e-09
66,31.020243145857343,1.8114715617401118e-09
67,31.156286579913367,1.8076378861910222e-09
68,31.292343619673364,1.8038069079510648e-09
69,31.42840065943337,1.799978073072031e-09
70,31.564457699193365,1.7961516171824694e-09
71,31.70050113324939,1.7923270034564977e-09
72,31.836558173009394,1.788506003413033e-09
73,31.97261521276939,1.784688066243625e-09
74,32.108672252529395,1.7814053958588499e-09
75,32.244715686585415,1.7776038715770147e-09
76,32.38077272634541,1.7738068645102205e-09
77,32.51682976610541,1.7700138249448417e-09
78,32.652886805865414,1.7662249550322412e-09
79,32.78893023992144,1.7624397210659374e-09
80,32.92498727968144,1.7586597842483618e-09
81,33.06104431944144,1.7548845978390155e-09
82,33.19710135920144,1.751114347972926e-09
83,33.33314479325746,1.7473485033580951e-09
84,33.46920183301746,1.7435886726702247e-09
85,33.60525887277746,1.7398343123853394e-09
86,33.74131591253746,1.7365351776632192e-09
87,33.87735934659349,1.7327995434612894e-09
88,34.01341638635349,1.7290706119308297e-09
89,34.14947342611349,1.7253478408791265e-09
90,34.285530465873485,1.7216339606290591e-09
91,34.421573899929506,1.7179590541835719e-09
92,34.55763093968951,1.7143310563538044e-09
93,34.69368797944951,1.7107450467654248e-09
94,34.82974501920951,1.707219556466001e-09
95,34.96578845326554,1.7037846273379066e-09
96,35.101845493025536,1.7002357639364417e-09
97,35.23790253278553,1.696978830872979e-09
98,35.37395957254554,1.6943017482694966e-09
99,35.51000300660156,1.6915455492867208e-09
100,35.646060046361555,1.68919721746235e-09
101,35.78211708612156,1.687436400701094e-09
102,35.918174125881556,1.6845380149135307e-09
103,36.054217559937584,1.6839136793566107e-09
104,36.19027459969758,1.6845846288962531e-09
105,36.326331639457585,1.6870772133112175e-09
106,36.46238867921758,1.685696173754138e-09
107,36.59844571897758,1.6916329953142909e-09
108,36.73448915303361,1.7014749115036188e-09
109,36.870546192793604,1.716741885222073e-09
110,37.00660323255361,1.7395170659816866e-09
111,37.142660272313606,1.7452977104279461e-09
112,37.27870370636963,1.7818380387351578e-09
113,37.41476074612963,1.833796888207991e-09
114,37.55081778588963,1.848717543411417e-09
115,37.686874825649625,1.928523353831612e-09
116,37.82291825970565,2.0393711027245147e-09
117,37.958975299465656,2.1923350675368386e-09
118,38.095032339225654,2.238931938950325e-09
119,38.23108937898566,2.4667870161096305e-09
120,38.36713281304168,2.7766825213042587e-09
121,38.503189852801675,2.870133764436963e-09
122,38.63924689256167,3.320849584057389e-09
123,38.77530393232168,3.930232413495384e-09
124,38.911347366377704,4.113188100487027e-09
125,39.0474044061377,4.99154985768993e-09
126,39.183461445897706,6.168671981837365e-09
127,39.3195184856577,6.5149196310126265e-09
128,39.45556191971372,8.18723434242177e-09
129,39.59161895947372,1.0402783387866774e-08
130,39.727675999233725,1.103859061123646e-08
131,39.86373303899372,1.4157201228084106e-08
132,39.99977647304975,1.825902169876325e-08
133,40.135833512809754,1.94061777629067e-08
134,40.27189055256975,2.5119644614839374e-08
135,40.407947592329755,3.2573716343853667e-08
136,40.54399102638577,3.460638799257906e-08
137,40.68004806614577,4.488967341735094e-08
138,40.81610510590577,4.764717797522676e-08
139,40.952162145665774,1.5512344348881468e-09
140,41.0882055797218,1.547978081125665e-09
141,41.2242626194818,1.5447325006816445e-09
142,41.3603196592418,1.5414971972526811e-09
143,41.4963766990018,1.5382721877879473e-09
144,41.63242013305782,1.5350569869012798e-09
145,41.76847717281782,1.5318526144665686e-09
146,41.90453421257782,1.5286585793715639e-09
147,42.04059125233782,1.5254748935708746e-09
148,42.17663468639385,1.5223010759707016e-09
149,42.31269172615385,1.5191381204160577e-09
150,42.44874876591385,1.515985541442133e-09
151,42.584805805673845,1.5130374424645997e-09
152,42.720849239729866,1.509907446255611e-09
153,42.85690627948987,1.506622198968754e-09
154,42.99296331924987,1.5035122102232302e-09
155,43.12902035900987,1.5001788938132008e-09
156,43.2650637930659,1.4967619859565072e-09
157,43.401120832825896,1.493679451716775e-09
158,43.53717787258589,1.4901521814370206e-09
159,43.67323491234589,1.4864570519079646e-09
160,43.80927834640192,1.4833995666090482e-09
161,43.945335386161915,1.4794768049409785e-09
162,44.08139242592192,1.4752281398176055e-09
163,44.217449465681916,1.472192656827477e-09
164,44.353492899737944,1.4674973549445829e-09
165,44.48954993949794,1.4644768525321766e-09
166,44.62560697925794,1.4592013577323645e-09
167,44.761664019017935,1.453048694562825e-09
168,44.89770745307396,1.4500470564297016e-09
169,45.03376449283397,1.4427274818278685e-09
170,45.169821532593964,1.4397089496995927e-09
171,45.30587857235397,1.4308572596177052e-09
172,45.44192200640999,1.4198571882927085e-09
173,45.577979046169986,1.4168953190251883e-09
174,45.71403608592998,1.403051051254e-09
175,45.85009312568999,1.4000355197144057e-09
176,45.986136559746015,1.3824637150556425e-09
177,46.12219359950601,1.3794409829126353e-09
178,46.258250639266016,1.3566404255081791e-09
179,46.394307679026014,1.3272051687190804e-09
180,46.53035111308204,1.3241933190586882e-09
181,46.66640815284203,1.2857749273869702e-09
182,46.802465192602035,1.2827843423055425e-09
183,46.93852223236203,1.2324481515391991e-09
184,47.07456566641806,1.229521063417729e-09
185,47.210622706178064,1.1629094867757261e-09
186,47.34667974593806,1.160649826198957e-09
187,47.482736785698066,1.0731483626161883e-09
188,47.618780219754086,9.58754624044893e-10
189,47.75483725951408,9.575851004053877e-10
190,47.89089429927408,8.072660338918504e-10
191,48.026951339034085,8.066928053824915e-10
192,48.16299477309011,6.090129223655723e-10
193,48.29905181285011,6.092992378295383e-10
194,48.43506041766452,1.3671304963150292e-09
195,48.43515728755569,1.3671332305695392e-09
196,48.57116589237011,1.359869826200257e-09
197,48.707222932130115,1.355193969050952e-09
198,48.84326636618613,1.3465223593164576e-09
199,48.97932340594613,1.3368990742754757e-09
200,49.11538044570613,1.3534229197780203e-09
201,49.251437485466134,1.317108434968837e-09
202,49.38748091952216,1.3374522177520138e-09
203,49.52353795928216,1.290750942149659e-09
204,49.65959499904216,1.3134704694238141e-09
205,49.79565203880216,1.2558094223375592e-09
206,49.93169547285818,1.2836330778282068e-09
207,50.06775251261818,1.2080857389310727e-09
208,50.20380955237818,1.1701284632421277e-09
209,50.33986659213818,1.2242481975823196e-09
210,50.47591002619421,1.0928962439071223e-09
211,50.61196706595421,1.1617618941384854e-09
212,50.74802410571421,9.931863735006547e-10
213,50.884081145474205,1.0773818670411633e-09
214,51.02007355950089,1.0290733020575428e-09
215,51.02017559955957,1.0290753602023633e-09
216,51.15618161929023,1.947688675306109e-09
217,51.29223865905023,1.8175083277845045e-09
218,51.42829569881023,2.0613095552041163e-09
219,51.56433913286626,1.901873981249944e-09
220,51.700396172626256,2.195867884742131e-09
221,51.83645321238625,2.0005440341850655e-09
222,51.97251025214625,2.3532548997248986e-09
223,52.10855368620228,2.1141354480950722e-09
224,52.24455848141958,2.6595746570617877e-09
225,52.244662970504976,2.659579976209495e-09
226,52.38066776572228,3.4794787954607782e-09
227,52.516724805482276,4.493372815138437e-09
228,52.652768239538304,3.927443089663451e-09
229,52.7888252792983,5.169220508479958e-09
230,52.92482939423041,6.03053032026723e-09
231,52.924935243886196,6.0305423813275285e-09
232,53.060939358818295,8.061326260774826e-09
233,53.19698279287432,7.04684113905068e-09
234,53.33303983263433,9.529335419164026e-09
235,53.469096872394324,8.29475589314377e-09
236,53.60515391215433,1.1327465132310866e-08
237,53.74119734621035,9.823539979101801e-09
238,53.877254385970346,1.3530921521089723e-08
239,54.01331142573034,1.1697197909428654e-08
240,54.14936846549035,1.6241078732876343e-08
241,54.285411899546375,1.4002063236101455e-08
242,54.55752597906638,1.685968038379339e-08
243,61.36021469861866,5.642134399803026e-10
244,68.16288981246697,5.849661702289211e-10
245,74.96557853201926,6.072921119363961e-10
246,81.76825364586757,6.091928269134971e-10
247,88.57094236541987,6.066310285749512e-10
248,95.37363108497215,6.026330292796875e-10
249,102.17630619882047,5.974306963643988e-10
250,108.97899491837275,5.912317175762507e-10
251,115.78168363792504,5.84198134453637e-10
252,122.58435875177334,5.765387159128541e-10
253,129.38704747132562,5.68376332904989e-10
254,136.05367915111793,5.599821206016897e-10
255,136.1897361908779,5.598072938004002e-10
256,204.0805119238249,4.6497930896940085e-10
257,272.10735830223587,4.454884175575025e-10
258,340.1341910749428,4.962814360431876e-10
259,408.1610238476498,5.31921277395621e-10
260,476.18787022606074,5.587264450250693e-10
261,544.2147029987677,5.80069499485374e-10
262,612.2415493771787,6.104331159083377e-10
263,680.2683821498856,6.633356474866708e-10
264,748.2952149225927,7.144727874317193e-10
265,816.3220613010035,7.640223906126361e-10
266,884.3488940737104,8.12219073636789e-10
267,952.3757404521215,8.592374666139359e-10
268,1020.4025732248285,9.052114613715868e-10
269,1088.4294196032395,9.502466127956059e-10
270,1156.4562523759464,9.944280572699401e-10
271,1224.4830851486533,1.037825952532134e-09
272,1292.5099315270643,1.0804991166840486e-09
273,1360.5367642997712,1.1224975771180504e-09
274,1496.590443450889,1.2046375269344007e-09
275,1632.644122602007,1.2845306360823135e-09
276,1768.697801753125,1.3624008677680573e-09
277,1904.7514672985392,1.4384294000452532e-09
278,2040.805146449657,1.5127661341344597e-09
279,2176.8588256007747,1.5855372687358626e-09
280,2312.912504751893,1.6568506384506666e-09
281,2448.966183903011,1.7267995050933765e-09
282,2585.0198630541286,1.7954653606861993e-09
283,2721.0735285995424,1.8629200381093035e-09
284,2857.1272077506605,1.929227382303176e-09
285,2993.180886901778,1.9944444742940756e-09
286,3129.2345660528963,2.0586226889711526e-09
287,3265.288245204014,2.1218085085673272e-09
288,3401.3419107494283,2.1840441849039463e-09
289,3537.3955899005464,2.245368329279118e-09
290,3673.4492690516645,2.305816318285791e-09
291,3809.502948202782,2.3654207163173404e-09
292,3945.5566273539002,2.424211595173886e-09
293,4081.610306505018,2.482216810137955e-09
294,4217.663972050432,2.5394622307339384e-09
295,4353.717651201549,2.595971979955779e-09
296,4489.771330352668,2.6517685607605765e-09
297,4625.825009503786,2.7068730469697036e-09
298,4761.878688654903,2.7613052076540734e-09
299,4897.932354200318,2.8150836199522545e-09
300,5033.986033351435,2.8682258058628387e-09
301,5170.039712502553,2.920748275639857e-09
302,5306.0933916536715,2.972666646039374e-09
303,5442.147070804789,3.0239957020634667e-09
304,5578.200749955907,3.0747494652732123e-09
305,5714.254415501321,3.1249412450165645e-09
306,5850.308094652439,3.1745837191942753e-09
307,5986.361773803556,3.223688942978162e-09
308,6122.415452954675,3.272268416392217e-09
309,6258.469132105793,3.3203331177241173e-09
310,6394.522797651206,3.3678935344665667e-09
311,6530.576476802325,3.414959722414475e-09
312,6666.630155953442,3.4615412913179508e-09
313,6802.68383510456,3.507647464272843e-09
314,6938.737514255678,3.553287091538563e-09
315,7074.791179801093,3.5984686697402417e-09
316,7210.8448589522095,3.643200387430417e-09
317,7346.898538103329,3.6874901060707104e-09
318,7482.952217254446,3.731345403813852e-09
319,7619.005896405564,3.774773585051277e-09
320,7755.059575556682,3.817781694786082e-09
321,7891.113241102096,3.860376529159824e-09
322,8027.166920253213,3.902564672149462e-09
323,8163.220599404332,3.944352470173024e-09
324,8299.27427855545,3.985746066133213e-09
325,8435.327957706568,4.026751409213626e-09
326,8571.38162325198,4.06737425363775e-09
327,8707.435302403099,4.107620195967593e-09
328,8843.488981554217,4.147494642255403e-09
329,8979.542660705336,4.187002846997233e-09
330,9115.596339856453,4.22614990889894e-09
331,9251.650019007571,4.264940779574623e-09
332,9387.703684552984,4.3033802681345975e-09
333,9523.757363704102,4.341473064437287e-09
334,9659.81104285522,4.3792237148985875e-09
335,9795.86472200634,4.416636649585354e-09
336,9931.918401157456,4.453716180489734e-09
337,10067.97206670287,4.490466501771528e-09
338,10204.025745853987,4.526891720276047e-09
339,10340.079425005106,4.5629958189343515e-09
340,10476.133104156224,4.5987826893097756e-09
341,10612.186783307343,4.634256128624784e-09
342,10748.24046245846,4.66941984301729e-09
343,10884.294128003874,4.7042774429655934e-09
344,11020.34780715499,4.738832473806919e-09
345,11156.40148630611,4.773088383459714e-09
346,11292.455165457228,4.807048544009077e-09
347,11428.508844608346,4.8407162562852614e-09
348,11564.562510153759,4.87409473975053e-09
349,11700.616189304877,4.907187162651739e-09
350,11836.669868455994,4.93999660755363e-09
351,11972.723547607113,4.972526099514024e-09
352,12108.777226758231,5.004778598204131e-09
353,12244.83090590935,5.036757004460244e-09
354,12380.884571454762,5.06846415402329e-09
355,12516.938250605881,5.099902842183841e-09
356,12652.991929756998,5.131075792273048e-09
357,12789.045608908116,5.161985683239273e-09
358,12925.099288059235,5.192635137110497e-09
359,13061.15295360465,5.223026726442867e-09
360,13197.206632755768,5.253162986126426e-09
361,13333.260311906884,5.283046393118935e-09
362,13469.313991058003,5.312679381286656e-09
363,13605.36767020912,5.3420643419385606e-09
364,16326.441198808663,5.881019182009069e-09
365,19047.514727408205,6.337225086889347e-09
366,21768.58826961345,6.722661700601067e-09
367,24489.661798212994,7.046714792433942e-09
368,27210.735326812537,7.317002192685672e-09
369,29931.808869017783,7.539867284805563e-09
370,32652.882397617326,7.720694343438735e-09
371,35373.95592621687,7.864120978743176e-09
372,38095.029468422115,7.974187494649893e-09
373,40816.10299702166,8.054445729566175e-09
374,43537.1765392269,8.1080407679401e-09
375,46258.25006782645,8.137773831221546e-09
376,48979.32359642599,8.146151817626509e-09
377,51700.39713863123,8.135427000302732e-09
378,54421.47066723078,8.107629405432763e-09
379,57142.54419583032,8.064593610407897e-09
380,59863.617738035566,8.007981176789034e-09
381,62584.691266635105,7.939299646945119e-09
382,65305.76479523465,7.859918815396952e-09
383,68026.8383374399,7.771084756444925e-09
384,70747.91186603945,7.673932018137066e-09
385,73468.98539463898,7.56949430570115e-09
386,76190.05893684423,7.45871390107461e-09
387,78911.13246544376,7.342542163477475e-09
388,81632.20599404332,7.22217991895878e-09
389,84353.27953624855,7.09905576898496e-09
390,87074.35306484811,6.975051674109886e-09
391,89795.42659344764,6.85279671440507e-09
392,92516.5001356529,6.735808653900846e-09
393,95237.57366425243,6.6244854465515894e-09
394,97958.64719285197,6.518129900531035e-09
395,100679.72073505721,6.416391240451724e-09
396,103400.79426365678,6.318952081425653e-09
397,106121.86779225631,6.225524486936e-09
398,108842.94133446156,6.135846552978164e-09
399,111564.0148630611,6.049679477503906e-09
400,114285.08839166064,5.966805021524234e-09
401,117006.16193386588,5.88702329691973e-09
402,119727.23546246543,5.810150835957415e-09
403,122448.30900467066,5.736018912227456e-09
404,125169.38253327021,5.664472055865365e-09
405,127890.45606186974,5.595366753116593e-09
406,130611.529604075,5.528570292634578e-09
407,133332.60313267456,5.463959751676789e-09
408,136053.6766612741,5.401421088600509e-09
409,138774.75020347934,5.340848342170685e-09
410,141495.8237320789,5.282142911372999e-09
411,144216.89726067844,5.225212914449921e-09
412,146937.97080288368,5.169972617890879e-09
413,149659.04433148322,5.1163419144650736e-09
414,156461.72816658777,4.988826931241016e-09
415,163264.4120016923,4.8698679153069475e-09
416,170067.0958367969,4.7585684390437285e-09
417,176869.77965829574,4.65415713104109e-09
418,183672.4634934003,4.555966210927639e-09
419,190475.14732850486,4.463414344067458e-09
420,197277.83116360943,4.3759928431586745e-09
421,204080.51499871397,4.2932544512590764e-09
422,210883.19883381855,4.214804170317823e-09
423,217685.88266892312,4.140291698173229e-09
424,224488.56649042197,4.0694051691802695e-09
425,231291.25032552652,4.001865917250119e-09
426,238093.93416063106,3.9374240920215364e-09
427,244896.61799573564,3.875854955966804e-09
428,251699.30183084018,3.816955745768262e-09
429,258501.98566594475,3.760542998955541e-09
430,265304.6695010493,3.7064502681240904e-09
431,272107.3533225482,3.6545261519814795e-09
432,278910.0371576527,3.604632602919678e-09
433,285712.7209927573,3.556643452188271e-09
434,292515.4048278619,3.5104431418863776e-09
435,299318.08866296645,3.46592560301674e-09
436,306120.77249807096,3.4229932870365063e-09
437,312923.45633317553,3.381556306892812e-09
438,319726.1401682801,3.341531685426201e-09
439,326528.82398977893,3.302842693045781e-09
440,333331.50782488356,3.2654182547768575e-09
441,340134.1916599881,3.2291924304436715e-09
442,346936.87549509265,3.194103950641766e-09
443,353739.5593301972,3.1600958007074774e-09
444,360542.24316530174,3.1271148501547637e-09
445,367344.9270004063,3.0951115226389128e-09
446,374147.6108219052,3.0640394932325305e-09
447,380950.2946570097,3.033855427972836e-09
