,E (eV),I (erg/s/cm**2)
0,1.360543186192048,4.354610749204859e-09
1,2.0408011735840956,5.1006090363849445e-09
2,2.7210727666801198,5.706224669701263e-09
3,3.401344359776144,6.225069527869341e-09
4,4.081615952872168,6.683826716189303e-09
5,4.761873940264215,7.097957519095045e-09
6,5.4421455333602395,7.477399169057843e-09
7,6.122417126456264,7.82889179132281e-09
8,6.802688719552288,8.157290047035016e-09
9,7.482946706944335,8.466197982175922e-09
10,8.16321830004036,8.75842784479184e-09
11,8.843489893136384,5.119805720206407e-08
12,9.523761486232408,2.6471717390449685e-07
13,10.204019473624456,9.554784947058305e-09
14,10.884291066720479,9.798334548134734e-09
15,11.564562659816504,1.0676874173417538e-08
16,12.244834252912527,1.074970774594945e-08
17,12.92510584600855,9.123762114609389e-09
18,13.7414208731606,3.392982328536342e-09
19,14.421692466256623,2.2831251641644095e-09
20,15.101964059352648,1.7612213225834285e-09
21,15.782222046744696,1.5297385727943708e-09
22,16.46249363984072,1.4402850165810484e-09
23,17.142765232936743,1.4193276880837465e-09
24,17.823036826032766,1.430648322153291e-09
25,18.503294813424816,1.4565060818545638e-09
26,19.18356640652084,1.4882627053184473e-09
27,19.863837999616862,1.5217280368242425e-09
28,20.544109592712886,1.5525849430500117e-09
29,21.224367580104932,1.562265790669308e-09
30,21.90463917320096,1.568458254357178e-09
31,22.584910766296982,1.5730980550787135e-09
32,23.26518235939301,1.5761988014660422e-09
33,23.945440346785055,1.5778279550456573e-09
34,24.62571193988108,1.5780801632752989e-09
35,25.305983532977105,1.5770569059056105e-09
36,25.986255126073125,1.5748627051410536e-09
37,26.66652671916915,1.571600399720978e-09
38,27.210741272505174,1.5682881584421563e-09
39,27.3467847065612,1.5673683796672885e-09
40,27.4828417463212,1.566414420457922e-09
41,27.618898786081196,1.5654262282819465e-09
42,27.7549558258412,1.5644045250380136e-09
43,27.89099925989722,1.5633492624173183e-09
44,28.02705629965722,1.5622626744776832e-09
45,28.16311333941722,1.5611446905959624e-09
46,28.299170379177223,1.5599959980007404e-09
47,28.435213813233247,1.5588165293860898e-09
48,28.571270852993244,1.5576084501388558e-09
49,28.70732789275325,1.5563716707566116e-09
50,28.843384932513246,1.5551068423871816e-09
51,28.97942836656927,1.5538138783911415e-09
52,29.115485406329267,1.5524948756969828e-09
53,29.25154244608927,1.5511497253099447e-09
54,29.387599485849268,1.5497790428493035e-09
55,29.523642919905292,1.5483827218088886e-09
56,29.659699959665296,1.5466597759974974e-09
57,29.795756999425294,1.544385526620179e-09
58,29.931814039185298,1.541770431130772e-09
59,30.067857473241315,1.5389303521375905e-09
60,30.20391451300132,1.5359740139001846e-09
61,30.339971552761316,1.5329438275600076e-09
62,30.47602859252132,1.5298666973954674e-09
63,30.612072026577344,1.5267587474227246e-09
64,30.74812906633734,1.5236302425525134e-09
65,30.884186106097346,1.5204891609149732e-09
66,31.020243145857343,1.5178537451475737e-09
67,31.156286579913367,1.5147071205416534e-09
68,31.292343619673364,1.5115577878288444e-09
69,31.42840065943337,1.5084057607769132e-09
70,31.564457699193365,1.505251762686611e-09
71,31.70050113324939,1.5020968649020277e-09
72,31.836558173009394,1.4989446468000448e-09
73,31.97261521276939,1.4957946451286981e-09
74,32.108672252529395,1.4926470416809254e-09
75,32.244715686585415,1.4895013870721473e-09
76,32.38077272634541,1.486359117728418e-09
77,32.51682976610541,1.4832197740840324e-09
78,32.652886805865414,1.4805210775300435e-09
79,32.78893023992144,1.4773958484006378e-09
80,32.92498727968144,1.4742747009823818e-09
81,33.06104431944144,1.4711571763049664e-09
82,33.19710135920144,1.4680434297589693e-09
83,33.33314479325746,1.464933014959528e-09
84,33.46920183301746,1.461827279971451e-09
85,33.60525887277746,1.4587257692524719e-09
86,33.74131591253746,1.4556286249625315e-09
87,33.87735934659349,1.4525354030046337e-09
88,34.01341638635349,1.449447410435253e-09
89,34.14947342611349,1.4463641932780159e-09
90,34.285530465873485,1.4436539733047553e-09
91,34.421573899929506,1.4405865518865616e-09
92,34.55763093968951,1.437524887548925e-09
93,34.69368797944951,1.4344901550910538e-09
94,34.82974501920951,1.4315047034900614e-09
95,34.96578845326554,1.4285913666325502e-09
96,35.101845493025536,1.42573556423257e-09
97,35.23790253278553,1.4229932005211232e-09
98,35.37395957254554,1.4203929729519893e-09
99,35.51000300660156,1.4180021273514072e-09
100,35.646060046361555,1.4152700032362987e-09
101,35.78211708612156,1.4132952469922923e-09
102,35.918174125881556,1.411808488088325e-09
103,36.054217559937584,1.411313216449416e-09
104,36.19027459969758,1.411487307907389e-09
105,36.326331639457585,1.4097042514771373e-09
106,36.46238867921758,1.4117539639806984e-09
107,36.59844571897758,1.4159462670684078e-09
108,36.73448915303361,1.4231472713449819e-09
109,36.870546192793604,1.4345565879388452e-09
110,37.00660323255361,1.4366249899172144e-09
111,37.142660272313606,1.4558621721586758e-09
112,37.27870370636963,1.483970912038235e-09
113,37.41476074612963,1.5243276008711352e-09
114,37.55081778588963,1.5358669495637152e-09
115,37.686874825649625,1.598469904081856e-09
116,37.82291825970565,1.686292413999143e-09
117,37.958975299465656,1.712733808165708e-09
118,38.095032339225654,1.8449876835162245e-09
119,38.23108937898566,2.0271166288203424e-09
120,38.36713281304168,2.2767417208514265e-09
121,38.503189852801675,2.352683065046344e-09
122,38.63924689256167,2.721486580203324e-09
123,38.77530393232168,3.22079069796223e-09
124,38.911347366377704,3.3697665683515803e-09
125,39.0474044061377,4.091057255229165e-09
126,39.183461445897706,5.063771664094922e-09
127,39.3195184856577,5.349586598999926e-09
128,39.45556191971372,6.744304079556838e-09
129,39.59161895947372,8.607449180987842e-09
130,39.727675999233725,9.14508063505732e-09
131,39.86373303899372,1.1782101311064533e-08
132,39.99977647304975,1.5267743366211617e-08
133,40.135833512809754,1.6242694914201668e-08
134,40.27189055256975,2.113158968502201e-08
135,40.407947592329755,2.7542184293329738e-08
136,40.54399102638577,2.9291482733444114e-08
137,40.68004806614577,3.819196717705135e-08
138,40.81610510590577,4.057920515557703e-08
139,40.952162145665774,1.3022489661211122e-09
140,41.0882055797218,1.2995437231450175e-09
141,41.2242626194818,1.2968472402168458e-09
142,41.3603196592418,1.2941591028810208e-09
143,41.4963766990018,1.2916688145431218e-09
144,41.63242013305782,1.2889993534161221e-09
145,41.76847717281782,1.2863387147574929e-09
146,41.90453421257782,1.2836864879816793e-09
147,42.04059125233782,1.2810426846202586e-09
148,42.17663468639385,1.2784069039111413e-09
149,42.31269172615385,1.2757799819335697e-09
150,42.44874876591385,1.273161513063709e-09
151,42.584805805673845,1.2705515049604077e-09
152,42.720849239729866,1.2679495598943246e-09
153,42.85690627948987,1.2653564938900234e-09
154,42.99296331924987,1.2627719051826236e-09
155,43.12902035900987,1.2600123260913385e-09
156,43.2650637930659,1.2574430326054204e-09
157,43.401120832825896,1.2546243620376996e-09
158,43.53717787258589,1.2517379963830323e-09
159,43.67323491234589,1.2491915406430663e-09
160,43.80927834640192,1.2461493201709205e-09
161,43.945335386161915,1.242917981957863e-09
162,44.08139242592192,1.2403912335608554e-09
163,44.217449465681916,1.2369010129322495e-09
164,44.353492899737944,1.2330450717367324e-09
165,44.48954993949794,1.2305360520869944e-09
166,44.62560697925794,1.2261795627398421e-09
167,44.761664019017935,1.2236801495965887e-09
168,44.89770745307396,1.218633026949583e-09
169,45.03376449283397,1.2126405987022993e-09
170,45.169821532593964,1.2101556510865184e-09
171,45.30587857235397,1.2028556962700842e-09
172,45.44192200640999,1.2003608276096242e-09
173,45.577979046169986,1.1913423217716332e-09
174,45.71403608592998,1.1799159404398764e-09
175,45.85009312568999,1.1774711991452263e-09
176,45.986136559746015,1.1628612615317415e-09
177,46.12219359950601,1.1603438149365611e-09
178,46.258250639266016,1.1415479401747344e-09
179,46.394307679026014,1.116890004947953e-09
180,46.53035111308204,1.1143794180219867e-09
181,46.66640815284203,1.0822507809341744e-09
182,46.802465192602035,1.079763595613667e-09
183,46.93852223236203,1.0375403142588495e-09
184,47.07456566641806,1.0350883107133154e-09
185,47.210622706178064,9.79456833361041e-10
186,47.34667974593806,9.77102723274169e-10
187,47.482736785698066,9.031699718958477e-10
188,47.618780219754086,8.061696167386051e-10
189,47.75483725951408,8.040958881939706e-10
190,47.89089429927408,6.770907513184058e-10
191,48.026951339034085,6.757691729035793e-10
192,48.16299477309011,5.073556029321662e-10
193,48.29905181285011,5.079423519467765e-10
194,48.43506041766452,1.139432609843493e-09
195,48.43515728755569,1.1394348887033097e-09
196,48.57116589237011,1.1443208637017178e-09
197,48.707222932130115,1.1396659709861872e-09
198,48.84326636618613,1.1323388736318994e-09
199,48.97932340594613,1.1241931154918076e-09
200,49.11538044570613,1.1158330953684991e-09
201,49.251437485466134,1.1075845090119584e-09
202,49.38748091952216,1.1245639234617053e-09
203,49.52353795928216,1.0853847255331461e-09
204,49.65959499904216,1.1043524554816612e-09
205,49.79565203880216,1.054120236389479e-09
206,49.93169547285818,1.0800834054389771e-09
207,50.06775251261818,1.0152521819799447e-09
208,50.20380955237818,1.0471303439355386e-09
209,50.33986659213818,9.635162562785724e-10
210,50.47591002619421,9.993860225035428e-10
211,50.61196706595421,8.936898684891296e-10
212,50.74802410571421,8.300950649381482e-10
213,50.884081145474205,9.006495636469601e-10
214,51.02007355950089,8.604517237561046e-10
215,51.02017559955957,8.604534446580608e-10
216,51.15618161929023,1.6448678169384064e-09
217,51.29223865905023,1.5346882599399462e-09
218,51.42829569881023,1.741720043748036e-09
219,51.56433913286626,1.6066737732140033e-09
220,51.700396172626256,1.8539631545047421e-09
221,51.83645321238625,1.6887276797902345e-09
222,51.97251025214625,1.98961209055408e-09
223,52.10855368620228,1.7868101074179055e-09
224,52.24455848141958,2.2505533819314936e-09
225,52.244662970504976,2.250557883036898e-09
226,52.38066776572228,2.966842144248949e-09
227,52.516724805482276,3.83627491403533e-09
228,52.652768239538304,3.3513192169302763e-09
229,52.7888252792983,4.415834508931667e-09
230,52.92482939423041,5.1793268320139415e-09
231,52.924935243886196,5.179337190667311e-09
232,53.060939358818295,6.9293608435470065e-09
233,53.19698279287432,6.055413057068432e-09
234,53.33303983263433,8.193500238152627e-09
235,53.469096872394324,7.1302790052448714e-09
236,53.60515391215433,9.7403237226224e-09
237,53.74119734621035,8.445668055993637e-09
238,53.877254385970346,1.1633712967006197e-08
239,54.01331142573034,1.0055935726862054e-08
240,54.14936846549035,1.3959834385864068e-08
241,54.285411899546375,1.2034443235876904e-08
242,54.55752597906638,1.4483603573496692e-08
243,61.36021469861866,4.784759533815677e-10
244,68.16288981246697,4.959711352765249e-10
245,74.96557853201926,5.148751306256409e-10
246,81.76825364586757,5.165139007122224e-10
247,88.57094236541987,5.142273420788045e-10
248,95.37363108497215,5.10685388414958e-10
249,102.17630619882047,5.061883974134615e-10
250,108.97899491837275,5.008259795688812e-10
251,115.78168363792504,4.947713852677553e-10
252,122.58435875177334,4.881968862044742e-10
253,129.38704747132562,4.812059403946914e-10
254,136.05367915111793,4.740285950875355e-10
255,136.1897361908779,4.738792206592948e-10
256,204.0805119238249,3.931898842392871e-10
257,272.10735830223587,3.760361998301037e-10
258,340.1341910749428,4.1872837887024993e-10
259,408.1610238476498,4.4869598786660916e-10
260,476.18787022606074,4.712507259074719e-10
261,544.2147029987677,4.891252270644713e-10
262,612.2415493771787,5.144566009595481e-10
263,680.2683821498856,5.590229734534032e-10
264,748.2952149225927,6.021063810044495e-10
265,816.3220613010035,6.438545893981659e-10
266,884.3488940737104,6.844645495766354e-10
267,952.3757404521215,7.240829203251339e-10
268,1020.4025732248285,7.628221929047072e-10
269,1088.4294196032395,8.0077108347679e-10
270,1156.4562523759464,8.380011702227554e-10
271,1224.4830851486533,8.745714553347452e-10
272,1292.5099315270643,9.10531416544562e-10
273,1360.5367642997712,9.459231462589515e-10
274,1496.590443450889,1.0151425707390079e-09
275,1632.644122602007,1.0824694770142989e-09
276,1768.697801753125,1.1480924240816782e-09
277,1904.7514672985392,1.2121639750086015e-09
278,2040.805146449657,1.2748103738611137e-09
279,2176.8588256007747,1.3361379116396452e-09
280,2312.912504751893,1.3962374196280169e-09
281,2448.966183903011,1.455187457828261e-09
282,2585.0198630541286,1.513056675080164e-09
283,2721.0735285995424,1.5699055851641981e-09
284,2857.1272077506605,1.6257879738887306e-09
285,2993.180886901778,1.6807519290299813e-09
286,3129.2345660528963,1.7348407331922731e-09
287,3265.288245204014,1.7880935459756839e-09
288,3401.3419107494283,1.8405459642968244e-09
289,3537.3955899005464,1.8922305168607425e-09
290,3673.4492690516645,1.9431770083753507e-09
291,3809.502948202782,1.993412874966367e-09
292,3945.5566273539002,2.0429634503788438e-09
293,4081.610306505018,2.0918522027247088e-09
294,4217.663972050432,2.1401009267533172e-09
295,4353.717651201549,2.1877299454402916e-09
296,4489.771330352668,2.2347582181170563e-09
297,4625.825009503786,2.2812034978209215e-09
298,4761.878688654903,2.3270824396434143e-09
299,4897.932354200318,2.3724106948619026e-09
300,5033.986033351435,2.4172030240341897e-09
301,5170.039712502553,2.4614733379392083e-09
302,5306.0933916536715,2.505234791705414e-09
303,5442.147070804789,2.548499841278473e-09
304,5578.200749955907,2.5912802993445262e-09
305,5714.254415501321,2.633587377281145e-09
306,5850.308094652439,2.6754317580478357e-09
307,5986.361773803556,2.71682359380501e-09
308,6122.415452954675,2.7577725744513117e-09
309,6258.469132105793,2.7982879484693945e-09
310,6394.522797651206,2.8383785495085296e-09
311,6530.576476802325,2.8780528487439003e-09
312,6666.630155953442,2.917318942872516e-09
313,6802.68383510456,2.9561846001665564e-09
314,6938.737514255678,2.994657276072607e-09
315,7074.791179801093,3.0327441287816014e-09
316,7210.8448589522095,3.070452055546092e-09
317,7346.898538103329,3.1077876787079824e-09
318,7482.952217254446,3.1447573819132465e-09
319,7619.005896405564,3.181367317422584e-09
320,7755.059575556682,3.217623421143711e-09
321,7891.113241102096,3.2535314171298956e-09
322,8027.166920253213,3.2890968506531447e-09
323,8163.220599404332,3.3243250683308215e-09
324,8299.27427855545,3.359221244575617e-09
325,8435.327957706568,3.3937903905904436e-09
326,8571.38162325198,3.4280373525309544e-09
327,8707.435302403099,3.461966845291244e-09
328,8843.488981554217,3.49558342248057e-09
329,8979.542660705336,3.5288915092126267e-09
330,9115.596339856453,3.561895400137801e-09
331,9251.650019007571,3.5945992676384265e-09
332,9387.703684552984,3.6270071599225147e-09
333,9523.757363704102,3.659123029701214e-09
334,9659.81104285522,3.690950704672055e-09
335,9795.86472200634,3.722493916168849e-09
336,9931.918401157456,3.75375629605059e-09
337,10067.97206670287,3.78474137864713e-09
338,10204.025745853987,3.8154526204005545e-09
339,10340.079425005106,3.845893378580622e-09
340,10476.133104156224,3.87606692910808e-09
341,10612.186783307343,3.905976470169177e-09
342,10748.24046245846,3.935625123216063e-09
343,10884.294128003874,3.965015930022994e-09
344,11020.34780715499,3.99415187660157e-09
345,11156.40148630611,4.023035865960986e-09
346,11292.455165457228,4.05167073906599e-09
347,11428.508844608346,4.080059274063704e-09
348,11564.562510153759,4.108204184282617e-09
349,11700.616189304877,4.136108138061605e-09
350,11836.669868455994,4.1637737305922955e-09
351,11972.723547607113,4.191203509564739e-09
352,12108.777226758231,4.218399968556885e-09
353,12244.83090590935,4.245365550632088e-09
354,12380.884571454762,4.272102642046746e-09
355,12516.938250605881,4.298613598899695e-09
356,12652.991929756998,4.3249007157166e-09
357,12789.045608908116,4.350966244654147e-09
358,12925.099288059235,4.376812397884254e-09
359,13061.15295360465,4.40244133890386e-09
360,13197.206632755768,4.427855205533e-09
361,13333.260311906884,4.45305608070319e-09
362,13469.313991058003,4.478046016134186e-09
363,13605.36767020912,4.502827024633332e-09
364,16326.441198808663,4.95738651679311e-09
365,19047.514727408205,5.342238211061031e-09
366,21768.58826961345,5.6674696216692935e-09
367,24489.661798212994,5.940983709101461e-09
368,27210.735326812537,6.169194632797759e-09
369,29931.808869017783,6.357443442625746e-09
370,32652.882397617326,6.5102636558977115e-09
371,35373.95592621687,6.6315601844640516e-09
372,38095.029468422115,6.724735114681859e-09
373,40816.10299702166,6.7927793481822135e-09
374,43537.1765392269,6.838341401728254e-09
375,46258.25006782645,6.863780359535412e-09
376,48979.32359642599,6.871207570933528e-09
377,51700.39713863123,6.862520073004882e-09
378,54421.47066723078,6.839427838469435e-09
379,57142.54419583032,6.803476333356947e-09
380,59863.617738035566,6.756065388584434e-09
381,62584.691266635105,6.6984652021904215e-09
382,65305.76479523465,6.631830016196184e-09
383,68026.8383374399,6.557209928378657e-09
384,70747.91186603945,6.4755611513385795e-09
385,73468.98539463898,6.387755001904229e-09
386,76190.05893684423,6.294585826944298e-09
387,78911.13246544376,6.1968118591608495e-09
388,81632.20599404332,6.095418961028251e-09
389,84353.27953624855,5.9916194557895466e-09
390,87074.35306484811,5.887008577556377e-09
391,89795.42659344764,5.783824600493985e-09
392,92516.5001356529,5.685080261951453e-09
393,95237.57366425243,5.591120120657276e-09
394,97958.64719285197,5.5013528393785384e-09
395,100679.72073505721,5.415482351567425e-09
396,103400.79426365678,5.3332407782029136e-09
397,106121.86779225631,5.254385086844837e-09
398,108842.94133446156,5.178694224687972e-09
399,111564.0148630611,5.105966636330545e-09
400,114285.08839166064,5.036018119807965e-09
401,117006.16193386588,4.968679964180211e-09
402,119727.23546246543,4.90379731660679e-09
403,122448.30900467066,4.841227767476262e-09
404,125169.38253327021,4.78084009383974e-09
405,127890.45606186974,4.722513166294345e-09
406,130611.529604075,4.666134971868311e-09
407,133332.60313267456,4.611601761593271e-09
408,136053.6766612741,4.558817279174472e-09
409,138774.75020347934,4.507692091594994e-09
410,141495.8237320789,4.458142973895977e-09
411,144216.89726067844,4.410092378566744e-09
412,146937.97080288368,4.363467940205278e-09
413,149659.04433148322,4.318202048265521e-09
414,156461.72816658777,4.210575656674601e-09
415,163264.4120016923,4.110170762301497e-09
416,170067.0958367969,4.0162307524652415e-09
417,176869.77965829574,3.928104565391897e-09
418,183672.4634934003,3.845228573925297e-09
419,190475.14732850486,3.7671121143425865e-09
420,197277.83116360943,3.693325839206285e-09
421,204080.51499871397,3.623492249116985e-09
422,210883.19883381855,3.5572779526542697e-09
423,217685.88266892312,3.4943872862182867e-09
424,224488.56649042197,3.4345570243480204e-09
425,231291.25032552652,3.377551965317236e-09
426,238093.93416063106,3.323161226282423e-09
427,244896.61799573564,3.2711951234055653e-09
428,251699.30183084018,3.2214825166035616e-09
429,258501.98566594475,3.1738685607002168e-09
430,265304.6695010493,3.1282127664801406e-09
431,272107.3533225482,3.0843873477347398e-09
432,278910.0371576527,3.0422757869508146e-09
433,285712.7209927573,3.0017715961956365e-09
434,292515.4048278619,2.962777238470527e-09
435,299318.08866296645,2.9252031905048996e-09
436,306120.77249807096,2.8889671170751413e-09
437,312923.45633317553,2.8539931508289013e-09
438,319726.1401682801,2.8202112578362096e-09
439,326528.82398977893,2.7875566746455233e-09
440,333331.50782488356,2.7559694117756726e-09
441,340134.1916599881,2.725393814902381e-09
442,346936.87549509265,2.6957781700361047e-09
443,353739.5593301972,2.6670743555560987e-09
444,360542.24316530174,2.6392375269491884e-09
445,367344.9270004063,2.6122258401194704e-09
446,374147.6108219052,2.586000197040673e-09
447,380950.2946570097,2.5605240211228533e-09
