,E (eV),I (erg/s/cm**2)
0,1.360543186192048,6.542907113592867e-09
1,2.0408011735840956,7.663787435860458e-09
2,2.7210727666801198,8.573739453053253e-09
3,3.401344359776144,9.353316299038673e-09
4,4.081615952872168,1.0042609979631892e-08
5,4.761873940264215,1.0664851445596456e-08
6,5.4421455333602395,1.1234971627104745e-08
7,6.122417126456264,1.1763097724026909e-08
8,6.802688719552288,1.2256523984014188e-08
9,7.482946706944335,1.2720665564144653e-08
10,8.16321830004036,1.3159747943037771e-08
11,8.843489893136384,9.515291573313245e-08
12,9.523761486232408,4.080054431428728e-07
13,10.204019473624456,1.4356293593032074e-08
14,10.884291066720479,1.4722232711169474e-08
15,11.564562659816504,1.6173775519154094e-08
16,12.244834252912527,1.591957657428648e-08
17,12.92510584600855,1.3579730058820029e-08
18,13.7414208731606,5.257585103336659e-09
19,14.421692466256623,3.5497460425367977e-09
20,15.101964059352648,2.7477468735789843e-09
21,15.782222046744696,2.39248066997242e-09
22,16.46249363984072,2.2552771295308326e-09
23,17.142765232936743,2.2229849303428903e-09
24,17.823036826032766,2.239959068803392e-09
25,18.503294813424816,2.2789910877565926e-09
26,19.18356640652084,2.326861357697499e-09
27,19.863837999616862,2.377155568107684e-09
28,20.544109592712886,2.422743671227765e-09
29,21.224367580104932,2.4356331116238012e-09
30,21.90463917320096,2.443174689741085e-09
31,22.584910766296982,2.448322125486138e-09
32,23.26518235939301,2.451110163894464e-09
33,23.945440346785055,2.4516538822377058e-09
34,24.62571193988108,2.450108247446604e-09
35,25.305983532977105,2.44663704241068e-09
36,25.986255126073125,2.4414073294028637e-09
37,26.66652671916915,2.4345823399773693e-09
38,27.210741272505174,2.4280789364423652e-09
39,27.3467847065612,2.4263173569021786e-09
40,27.4828417463212,2.4245053959067287e-09
41,27.618898786081196,2.422642984884096e-09
42,27.7549558258412,2.4207312522756683e-09
43,27.89099925989722,2.4187701334639705e-09
44,28.02705629965722,2.4167630949225867e-09
45,28.16311333941722,2.4147100362494692e-09
46,28.299170379177223,2.412586942688814e-09
47,28.435213813233247,2.409354870967018e-09
48,28.571270852993244,2.4054420522745884e-09
49,28.70732789275325,2.401108746931464e-09
50,28.843384932513246,2.3965154377197574e-09
51,28.97942836656927,2.3917472735832924e-09
52,29.115485406329267,2.386884776068104e-09
53,29.25154244608927,2.381963474142317e-09
54,29.387599485849268,2.3770032606740724e-09
55,29.523642919905292,2.3720145738513557e-09
56,29.659699959665296,2.36780948469036e-09
57,29.795756999425294,2.3628047846760954e-09
58,29.931814039185298,2.3577918539003904e-09
59,30.067857473241315,2.3527713711326725e-09
60,30.20391451300132,2.3477459131775482e-09
61,30.339971552761316,2.3427171566550447e-09
62,30.47602859252132,2.3376896292706623e-09
63,30.612072026577344,2.332662640434092e-09
64,30.74812906633734,2.3276386110416047e-09
65,30.884186106097346,2.3226168319904908e-09
66,31.020243145857343,2.3175976335270745e-09
67,31.156286579913367,2.312580330239892e-09
68,31.292343619673364,2.308260002512078e-09
69,31.42840065943337,2.3032644726955864e-09
70,31.564457699193365,2.2982728572765973e-09
71,31.70050113324939,2.293284471804401e-09
72,31.836558173009394,2.2883015837228836e-09
73,31.97261521276939,2.2833234904726266e-09
74,32.108672252529395,2.2783504742106578e-09
75,32.244715686585415,2.2733818514920415e-09
76,32.38077272634541,2.2684198186260943e-09
77,32.51682976610541,2.263463674707827e-09
78,32.652886805865414,2.2585136803507806e-09
79,32.78893023992144,2.254148313915856e-09
80,32.92498727968144,2.2492221062141667e-09
81,33.06104431944144,2.2443028424267263e-09
82,33.19710135920144,2.239390758278116e-09
83,33.33314479325746,2.234485172528255e-09
84,33.46920183301746,2.2295881410017558e-09
85,33.60525887277746,2.224698966685583e-09
86,33.74131591253746,2.219817977704881e-09
87,33.87735934659349,2.2149578342784565e-09
88,34.01341638635349,2.2101270413652055e-09
89,34.14947342611349,2.205322782287317e-09
90,34.285530465873485,2.2005487267213234e-09
91,34.421573899929506,2.196313694224411e-09
92,34.55763093968951,2.1916615264525096e-09
93,34.69368797944951,2.186931348601706e-09
94,34.82974501920951,2.1824100204138246e-09
95,34.96578845326554,2.17803166621816e-09
96,35.101845493025536,2.1738525342362184e-09
97,35.23790253278553,2.1699581925421095e-09
98,35.37395957254554,2.1664653897044205e-09
99,35.51000300660156,2.162212015924395e-09
100,35.646060046361555,2.1595050876816766e-09
101,35.78211708612156,2.1576834945616417e-09
102,35.918174125881556,2.1571055793871518e-09
103,36.054217559937584,2.158682508273001e-09
104,36.19027459969758,2.1561335006539747e-09
105,36.326331639457585,2.160594166676985e-09
106,36.46238867921758,2.1687585398246e-09
107,36.59844571897758,2.1820484137297728e-09
108,36.73448915303361,2.183678959503595e-09
109,36.870546192793604,2.2064046130058066e-09
110,37.00660323255361,2.239671105798776e-09
111,37.142660272313606,2.2873346071331805e-09
112,37.27870370636963,2.3003099868340564e-09
113,37.41476074612963,2.374012329443076e-09
114,37.55081778588963,2.4765970465872883e-09
115,37.686874825649625,2.507342568059781e-09
116,37.82291825970565,2.661392950514988e-09
117,37.958975299465656,2.8702702861410607e-09
118,38.095032339225654,3.1553920733500365e-09
119,38.23108937898566,3.242315351404335e-09
120,38.36713281304168,3.6580920338417037e-09
121,38.503189852801675,4.21712107055462e-09
122,38.63924689256167,4.388583071471421e-09
123,38.77530393232168,5.193061929214167e-09
124,38.911347366377704,6.2643152854807695e-09
125,39.0474044061377,6.58230309393301e-09
126,39.183461445897706,8.103141750688596e-09
127,39.3195184856577,1.0111924470715843e-08
128,39.45556191971372,1.069538462619412e-08
129,39.59161895947372,1.3514617209670593e-08
130,39.727675999233725,1.7210059116907026e-08
131,39.86373303899372,1.8257455487927816e-08
132,39.99977647304975,2.3389558794216024e-08
133,40.135833512809754,2.482546675146196e-08
134,40.27189055256975,3.1909661173078835e-08
135,40.407947592329755,4.10901036584942e-08
136,40.54399102638577,4.359787333623046e-08
137,40.68004806614577,5.61597999528214e-08
138,40.81610510590577,5.953770402148157e-08
139,40.952162145665774,1.9790207099447217e-09
140,41.0882055797218,1.9747993246218027e-09
141,41.2242626194818,1.9705922931487676e-09
142,41.3603196592418,1.966398977565463e-09
143,41.4963766990018,1.9624735261146255e-09
144,41.63242013305782,1.958310127083302e-09
145,41.76847717281782,1.954161140366052e-09
146,41.90453421257782,1.9500259342161743e-09
147,42.04059125233782,1.9459045187095643e-09
148,42.17663468639385,1.941796275480539e-09
149,42.31269172615385,1.937702467142759e-09
150,42.44874876591385,1.9336224684506885e-09
151,42.584805805673845,1.9295562833188514e-09
152,42.720849239729866,1.9255033000798124e-09
153,42.85690627948987,1.921230492927561e-09
154,42.99296331924987,1.9168786479283647e-09
155,43.12902035900987,1.9128637709324443e-09
156,43.2650637930659,1.9084084863857614e-09
157,43.401120832825896,1.9038325842102045e-09
158,43.53717787258589,1.8998533771897093e-09
159,43.67323491234589,1.8950185789205064e-09
160,43.80927834640192,1.889865998082588e-09
161,43.945335386161915,1.8859184316929503e-09
162,44.08139242592192,1.880336910921886e-09
163,44.217449465681916,1.876410761283726e-09
164,44.353492899737944,1.8702352963439747e-09
165,44.48954993949794,1.8632387750296775e-09
166,44.62560697925794,1.859340956023015e-09
167,44.761664019017935,1.851239392347379e-09
168,44.89770745307396,1.8473290912347405e-09
169,45.03376449283397,1.837726502290981e-09
170,45.169821532593964,1.8260485577185036e-09
171,45.30587857235397,1.822158729145448e-09
172,45.44192200640999,1.8078020410463174e-09
173,45.577979046169986,1.803901351849093e-09
174,45.71403608592998,1.7858990674938504e-09
175,45.85009312568999,1.7628970759542267e-09
176,45.986136559746015,1.7589812163663268e-09
177,46.12219359950601,1.7296287520146618e-09
178,46.258250639266016,1.7257188270161458e-09
179,46.394307679026014,1.687767653847232e-09
180,46.53035111308204,1.6838886036913822e-09
181,46.66640815284203,1.6341883580611811e-09
182,46.802465192602035,1.6307664237651464e-09
183,46.93852223236203,1.5659821589624211e-09
184,47.07456566641806,1.5627239003288417e-09
185,47.210622706178064,1.4781720392809535e-09
186,47.34667974593806,1.3682168361899354e-09
187,47.482736785698066,1.3661516719659726e-09
188,47.618780219754086,1.2216116083646065e-09
189,47.75483725951408,1.219567113033478e-09
190,47.89089429927408,1.0322711145984041e-09
191,48.026951339034085,1.0306716402116676e-09
192,48.16299477309011,7.860658216113636e-10
193,48.29905181285011,7.860030655495808e-10
194,48.43506041766452,1.7401257114241668e-09
195,48.43515728755569,1.7401291916673384e-09
196,48.57116589237011,1.7536926380913003e-09
197,48.707222932130115,1.7249369255005823e-09
198,48.84326636618613,1.7417285003420765e-09
199,48.97932340594613,1.7049550907080413e-09
200,49.11538044570613,1.7225467414071638e-09
201,49.251437485466134,1.676081336887226e-09
202,49.38748091952216,1.7011773632254507e-09
203,49.52353795928216,1.6984547002362754e-09
204,49.65959499904216,1.6190704600382768e-09
205,49.79565203880216,1.6637977323484235e-09
206,49.93169547285818,1.562788442125656e-09
207,50.06775251261818,1.621125503878064e-09
208,50.20380955237818,1.4919523234979621e-09
209,50.33986659213818,1.5633871092121172e-09
210,50.47591002619421,1.398296364693631e-09
211,50.61196706595421,1.4838770609649103e-09
212,50.74802410571421,1.2733854555856377e-09
213,50.884081145474205,1.3805947852374383e-09
214,51.02007355950089,1.318509894295333e-09
215,51.02017559955957,1.3185125313128363e-09
216,51.15618161929023,2.4601533117301443e-09
217,51.29223865905023,2.2995095706449354e-09
218,51.42829569881023,2.601309779395657e-09
219,51.56433913286626,2.40119082517207e-09
220,51.700396172626256,2.7688707166800834e-09
221,51.83645321238625,2.523928719909423e-09
222,51.97251025214625,2.9658284788948413e-09
223,52.10855368620228,2.6661315406480356e-09
224,52.24455848141958,3.3474789555406627e-09
225,52.244662970504976,3.347485650496551e-09
226,52.38066776572228,4.334215898705334e-09
227,52.516724805482276,5.586383528331578e-09
228,52.652768239538304,4.8866742770370904e-09
229,52.7888252792983,6.421157539015673e-09
230,52.92482939423041,7.436765762777689e-09
231,52.924935243886196,7.436780636308792e-09
232,53.060939358818295,9.932792855487023e-09
233,53.19698279287432,8.687102700674567e-09
234,53.33303983263433,1.1733143343548412e-08
235,53.469096872394324,1.0216958700805608e-08
236,53.60515391215433,1.3946790467153234e-08
237,53.74119734621035,1.2098432247918564e-08
238,53.877254385970346,1.666367972699575e-08
239,54.01331142573034,1.4408077231622384e-08
240,54.14936846549035,2.001101283466938e-08
241,54.285411899546375,1.725426754293535e-08
242,54.55752597906638,2.079124821581148e-08
243,61.36021469861866,7.09261456331456e-10
244,68.16288981246697,7.355926239879056e-10
245,74.96557853201926,7.637571074052275e-10
246,81.76825364586757,7.662150641929752e-10
247,88.57094236541987,7.632512265305452e-10
248,95.37363108497215,7.584758440452561e-10
249,102.17630619882047,7.521643554613498e-10
250,108.97899491837275,7.446145911883653e-10
251,115.78168363792504,7.359757442057237e-10
252,122.58435875177334,7.265078175997869e-10
253,129.38704747132562,7.163820700463494e-10
254,136.05367915111793,7.059400748459041e-10
255,136.1897361908779,7.057223441930107e-10
256,204.0805119238249,5.8689404651332e-10
257,272.10735830223587,5.635310866928619e-10
258,340.1341910749428,6.280761306595425e-10
259,408.1610238476498,6.733435454241567e-10
260,476.18787022606074,7.073647667891747e-10
261,544.2147029987677,7.346492957672693e-10
262,612.2415493771787,7.736149027293578e-10
263,680.2683821498856,8.406885841475616e-10
264,748.2952149225927,9.055169153726192e-10
265,816.3220613010035,9.683289277109961e-10
266,884.3488940737104,1.0294232047335869e-09
267,952.3757404521215,1.0890218805544376e-09
268,1020.4025732248285,1.1472951940483235e-09
269,1088.4294196032395,1.2043773028826637e-09
270,1156.4562523759464,1.260376374741042e-09
271,1224.4830851486533,1.3153815207328204e-09
272,1292.5099315270643,1.3694674283584592e-09
273,1360.5367642997712,1.4226976100858142e-09
274,1496.590443450889,1.5268029352851264e-09
275,1632.644122602007,1.6280589532037319e-09
276,1768.697801753125,1.7267498063539116e-09
277,1904.7514672985392,1.8231053121839739e-09
278,2040.805146449657,1.917315590521506e-09
279,2176.8588256007747,2.009540682933403e-09
280,2312.912504751893,2.0999173323782744e-09
281,2448.966183903011,2.188563794599628e-09
282,2585.0198630541286,2.2755833991759027e-09
283,2721.0735285995424,2.361067223434579e-09
284,2857.1272077506605,2.445096216938802e-09
285,2993.180886901778,2.5277427496705756e-09
286,3129.2345660528963,2.609071958242646e-09
287,3265.288245204014,2.689142774594845e-09
288,3401.3419107494283,2.7680087677974512e-09
289,3537.3955899005464,2.8457188901229234e-09
290,3673.4492690516645,2.9223179929857442e-09
291,3809.502948202782,2.997847364354568e-09
292,3945.5566273539002,3.0723451289863676e-09
293,4081.610306505018,3.1458466029109255e-09
294,4217.663972050432,3.2183845860115574e-09
295,4353.717651201549,3.289989660783694e-09
296,4489.771330352668,3.360690360780748e-09
297,4625.825009503786,3.4305134028013566e-09
298,4761.878688654903,3.4994838512446305e-09
299,4897.932354200318,3.567625262098751e-09
300,5033.986033351435,3.6349598498638655e-09
301,5170.039712502553,3.701508549000902e-09
302,5306.0933916536715,3.767291158835447e-09
303,5442.147070804789,3.832326427776301e-09
304,5578.200749955907,3.896632132131519e-09
305,5714.254415501321,3.960225148883268e-09
306,5850.308094652439,4.023121553720163e-09
307,5986.361773803556,4.08533663108572e-09
308,6122.415452954675,4.146884962558564e-09
309,6258.469132105793,4.207780470248281e-09
310,6394.522797651206,4.268036451244165e-09
311,6530.576476802325,4.327665656295819e-09
312,6666.630155953442,4.386680271711754e-09
313,6802.68383510456,4.445091991629852e-09
314,6938.737514255678,4.502912039550419e-09
315,7074.791179801093,4.560151189662026e-09
316,7210.8448589522095,4.616819825584461e-09
317,7346.898538103329,4.672927917351333e-09
318,7482.952217254446,4.728485072608984e-09
319,7619.005896405564,4.7835005551397195e-09
320,7755.059575556682,4.837983299930972e-09
321,7891.113241102096,4.891941924267143e-09
322,8027.166920253213,4.945384778669285e-09
323,8163.220599404332,4.998319909088944e-09
324,8299.27427855545,5.050755109175515e-09
325,8435.327957706568,5.102697921246877e-09
326,8571.38162325198,5.154155642729714e-09
327,8707.435302403099,5.2051353723493624e-09
328,8843.488981554217,5.255643966147042e-09
329,8979.542660705336,5.3056880867866065e-09
330,9115.596339856453,5.35527420060251e-09
331,9251.650019007571,5.404408591172191e-09
332,9387.703684552984,5.453097351489623e-09
333,9523.757363704102,5.501346434520055e-09
334,9659.81104285522,5.54916160516121e-09
335,9795.86472200634,5.596548480745203e-09
336,9931.918401157456,5.643512531454549e-09
337,10067.97206670287,5.690059076809568e-09
338,10204.025745853987,5.7361933229669e-09
339,10340.079425005106,5.781920326890019e-09
340,10476.133104156224,5.827245020465186e-09
341,10612.186783307343,5.872172221243549e-09
342,10748.24046245846,5.916706628603114e-09
343,10884.294128003874,5.960852823341776e-09
344,11020.34780715499,6.004615302303552e-09
345,11156.40148630611,6.047998437430101e-09
346,11292.455165457228,6.091006508674471e-09
347,11428.508844608346,6.1336437000664775e-09
348,11564.562510153759,6.175914096657899e-09
349,11700.616189304877,6.217821717150137e-09
350,11836.669868455994,6.259370471615776e-09
351,11972.723547607113,6.300564195750322e-09
352,12108.777226758231,6.3414066452226325e-09
353,12244.83090590935,6.3819014996638046e-09
354,12380.884571454762,6.422052356167807e-09
355,12516.938250605881,6.461862760519541e-09
356,12652.991929756998,6.501336167272581e-09
357,12789.045608908116,6.5404759731854256e-09
358,12925.099288059235,6.579285505837331e-09
359,13061.15295360465,6.617768028585145e-09
360,13197.206632755768,6.655926757010657e-09
361,13333.260311906884,6.693764831702477e-09
362,13469.313991058003,6.731285343217476e-09
363,13605.36767020912,6.768491320420062e-09
364,16326.441198808663,7.450798189016597e-09
365,19047.514727408205,8.028176876141791e-09
366,21768.58826961345,8.515826484679522e-09
367,24489.661798212994,8.925655895724707e-09
368,27210.735326812537,9.267331114021483e-09
369,29931.808869017783,9.548901130588714e-09
370,32652.882397617326,9.77719785906527e-09
371,35373.95592621687,9.958105631966733e-09
372,38095.029468422115,1.0096750683778005e-08
373,40816.10299702166,1.019763922964371e-08
374,43537.1765392269,1.0264761158049225e-08
375,46258.25006782645,1.0301669860947246e-08
376,48979.32359642599,1.0311545082141573e-08
377,51700.39713863123,1.0297243329507004e-08
378,54421.47066723078,1.0261338971183857e-08
379,57142.54419583032,1.0206158255892375e-08
380,59863.617738035566,1.0133807798355705e-08
381,62584.691266635105,1.0046198701007413e-08
382,65305.76479523465,9.945067220899213e-09
383,68026.8383374399,9.831992576722407e-09
384,70747.91186603945,9.708412430529972e-09
385,73468.98539463898,9.575636473936694e-09
386,76190.05893684423,9.434867957991418e-09
387,78911.13246544376,9.287423481849957e-09
388,81632.20599404332,9.13482054041799e-09
389,84353.27953624855,8.97886819989313e-09
390,87074.35306484811,8.821932696884387e-09
391,89795.42659344764,8.667306632430295e-09
392,92516.5001356529,8.519352531078832e-09
393,95237.57366425243,8.37855738729401e-09
394,97958.64719285197,8.244045047728287e-09
395,100679.72073505721,8.115371866250215e-09
396,103400.79426365678,7.992136440466088e-09
397,106121.86779225631,7.87397460136509e-09
398,108842.94133446156,7.760555111817122e-09
399,111564.0148630611,7.651575947303619e-09
400,114285.08839166064,7.546761092185935e-09
401,117006.16193386588,7.445857740004156e-09
402,119727.23546246543,7.3486338519035875e-09
403,122448.30900467066,7.254876034714705e-09
404,125169.38253327021,7.164387658032412e-09
405,127890.45606186974,7.076987211331396e-09
406,130611.529604075,6.992506854576975e-09
407,133332.60313267456,6.9107911196235475e-09
408,136053.6766612741,6.8316957723649316e-09
409,138774.75020347934,6.755086803072617e-09
410,141495.8237320789,6.680839502973846e-09
411,144216.89726067844,6.6088376677164065e-09
412,146937.97080288368,6.538972865815929e-09
413,149659.04433148322,6.471143783131395e-09
414,156461.72816658777,6.309870023970482e-09
415,163264.4120016923,6.159417350621658e-09
416,170067.0958367969,6.018652016669707e-09
417,176869.77965829574,5.8865984359320205e-09
418,183672.4634934003,5.762412037508369e-09
419,190475.14732850486,5.6453575865817426e-09
420,197277.83116360943,5.5347917248429074e-09
421,204080.51499871397,5.430148787961947e-09
422,210883.19883381855,5.3309292047355714e-09
423,217685.88266892312,5.236689935498193e-09
424,224488.56649042197,5.14703654943428e-09
425,231291.25032552652,5.061616606097689e-09
426,238093.93416063106,4.980114110852298e-09
427,244896.61799573564,4.9022448258969216e-09
428,251699.30183084018,4.827752311042092e-09
429,258501.98566594475,4.756404534472124e-09
430,265304.6695010493,4.687990979814119e-09
431,272107.3533225482,4.622320164719481e-09
432,278910.0371576527,4.559217494802311e-09
433,285712.7209927573,4.498523401530483e-09
434,292515.4048278619,4.440091730196168e-09
435,299318.08866296645,4.383788333442416e-09
436,306120.77249807096,4.329489835055577e-09
437,312923.45633317553,4.277082553746839e-09
438,319726.1401682801,4.226461544480211e-09
439,326528.82398977893,4.177529762897704e-09
440,333331.50782488356,4.130197317334546e-09
441,340134.1916599881,4.084380812261019e-09
442,346936.87549509265,4.040002756647306e-09
443,353739.5593301972,3.996991040701919e-09
444,360542.24316530174,3.955278469017992e-09
445,367344.9270004063,3.914802339456165e-09
446,374147.6108219052,3.875504065719724e-09
447,380950.2946570097,3.837328837165e-09
448,387752.9784921143,3.800225317268102e-09
