,E (eV),I (erg/s/cm**2)
0,1.360543186192048,5.530114251617845e-09
1,2.0408011735840956,6.477490721574519e-09
2,2.7210727666801198,7.246589003301922e-09
3,3.401344359776144,7.905493210769343e-09
4,4.081615952872168,8.488089408517578e-09
5,4.761873940264215,9.014012570674187e-09
6,5.4421455333602395,9.495882431602584e-09
7,6.122417126456264,9.942258576722092e-09
8,6.802688719552288,1.0359306156566541e-08
9,7.482946706944335,1.0751602109740425e-08
10,8.16321830004036,1.1122717832803228e-08
11,8.843489893136384,7.584377504793667e-08
12,9.523761486232408,3.414263801138964e-07
13,10.204019473624456,1.2134047208816322e-08
14,10.884291066720479,1.2443341700897968e-08
15,11.564562659816504,1.3747855818822305e-08
16,12.244834252912527,1.3523780762083626e-08
17,12.92510584600855,1.1511530362528432e-08
18,13.7414208731606,4.381926812479491e-09
19,14.421692466256623,2.95445904879853e-09
20,15.101964059352648,2.2837406510545796e-09
21,15.782222046744696,1.986480131155853e-09
22,16.46249363984072,1.8716600919663753e-09
23,17.142765232936743,1.8447029200177584e-09
24,17.823036826032766,1.8590666486228508e-09
25,18.503294813424816,1.891976690572722e-09
26,19.18356640652084,1.9323574849156214e-09
27,19.863837999616862,1.9748373475519534e-09
28,20.544109592712886,2.013640534996481e-09
29,21.224367580104932,2.02511559557859e-09
30,21.90463917320096,2.032125138914113e-09
31,22.584910766296982,2.037133964593815e-09
32,23.26518235939301,2.040166316609143e-09
33,23.945440346785055,2.0413144872281655e-09
34,24.62571193988108,2.040704801952307e-09
35,25.305983532977105,2.038471556289216e-09
36,25.986255126073125,2.0347522830481048e-09
37,26.66652671916915,2.029681748339715e-09
38,27.210741272505174,2.024739458121227e-09
39,27.3467847065612,2.023388462071347e-09
40,27.4828417463212,2.021994548268756e-09
41,27.618898786081196,2.020557655122999e-09
42,27.7549558258412,2.019078720450794e-09
43,27.89099925989722,2.017557686742728e-09
44,28.02705629965722,2.0159974430288085e-09
45,28.16311333941722,2.0143979025847394e-09
46,28.299170379177223,2.012759955484651e-09
47,28.435213813233247,2.011083519362478e-09
48,28.571270852993244,2.0093713901756864e-09
49,28.70732789275325,2.0076234551896923e-09
50,28.843384932513246,2.0057664225453542e-09
51,28.97942836656927,2.0030375052038133e-09
52,29.115485406329267,1.99977233802292e-09
53,29.25154244608927,1.9961753004720263e-09
54,29.387599485849268,1.9923727444472985e-09
55,29.523642919905292,1.9884313158807373e-09
56,29.659699959665296,1.9844162488182713e-09
57,29.795756999425294,1.980354537716046e-09
58,29.931814039185298,1.976262137774379e-09
59,30.067857473241315,1.972147996734238e-09
60,30.20391451300132,1.9686838954698787e-09
61,30.339971552761316,1.964557528559288e-09
62,30.47602859252132,1.9604252136610455e-09
63,30.612072026577344,1.9562874985605367e-09
64,30.74812906633734,1.952146865207078e-09
65,30.884186106097346,1.9480035408105017e-09
66,31.020243145857343,1.943861908661586e-09
67,31.156286579913367,1.9397213907481114e-09
68,31.292343619673364,1.9355839492804613e-09
69,31.42840065943337,1.9314489910673395e-09
70,31.564457699193365,1.927316771058948e-09
71,31.70050113324939,1.9231867135460103e-09
72,31.836558173009394,1.9196313056804915e-09
73,31.97261521276939,1.9155200790089214e-09
74,32.108672252529395,1.91141262161467e-09
75,32.244715686585415,1.907308358798488e-09
76,32.38077272634541,1.903209131928218e-09
77,32.51682976610541,1.899114351354617e-09
78,32.652886805865414,1.895024235019393e-09
79,32.78893023992144,1.8909382108948516e-09
80,32.92498727968144,1.8868580605773897e-09
81,33.06104431944144,1.882783199311897e-09
82,33.19710135920144,1.8787138260356438e-09
83,33.33314479325746,1.8746493712776303e-09
84,33.46920183301746,1.871075033022827e-09
85,33.60525887277746,1.867031963402297e-09
86,33.74131591253746,1.862995174121025e-09
87,33.87735934659349,1.8589640958343906e-09
88,34.01341638635349,1.8549403990439628e-09
89,34.14947342611349,1.8509285882599785e-09
90,34.285530465873485,1.8469574098317114e-09
91,34.421573899929506,1.843001814718177e-09
92,34.55763093968951,1.8390901746227024e-09
93,34.69368797944951,1.8352324328665207e-09
94,34.82974501920951,1.8314456439087536e-09
95,34.96578845326554,1.8277596260730762e-09
96,35.101845493025536,1.8246229802324035e-09
97,35.23790253278553,1.8208603602092744e-09
98,35.37395957254554,1.8176186544326007e-09
99,35.51000300660156,1.8147000278659936e-09
100,35.646060046361555,1.8122478899348394e-09
101,35.78211708612156,1.8104549398637768e-09
102,35.918174125881556,1.8073612163248017e-09
103,36.054217559937584,1.8068437094903959e-09
104,36.19027459969758,1.8077757673752882e-09
105,36.326331639457585,1.810740301342244e-09
106,36.46238867921758,1.8165477741469158e-09
107,36.59844571897758,1.8161306692526637e-09
108,36.73448915303361,1.8272483376044861e-09
109,36.870546192793604,1.8447182636713137e-09
110,37.00660323255361,1.870131473045498e-09
111,37.142660272313606,1.876299472003982e-09
112,37.27870370636963,1.9168271911229634e-09
113,37.41476074612963,1.974266319542395e-09
114,37.55081778588963,2.0547456503903168e-09
115,37.686874825649625,2.078635561700542e-09
116,37.82291825970565,2.2004420213822442e-09
117,37.958975299465656,2.368120247122203e-09
118,38.095032339225654,2.4195376239905507e-09
119,38.23108937898566,2.6678201592861794e-09
120,38.36713281304168,3.0034865114120195e-09
121,38.503189852801675,3.1056748053800823e-09
122,38.63924689256167,3.596567838067942e-09
123,38.77530393232168,4.256332941345751e-09
124,38.911347366377704,5.1400586739941824e-09
125,39.0474044061377,5.406626627722731e-09
126,39.183461445897706,6.671664310058053e-09
127,39.3195184856577,8.351754517538258e-09
128,39.45556191971372,8.839764734087366e-09
129,39.59161895947372,1.1214254757723456e-08
130,39.727675999233725,1.1895877536470704e-08
131,39.86373303899372,1.5229298896279412e-08
132,39.99977647304975,1.9604229000025207e-08
133,40.135833512809754,2.082811352459594e-08
134,40.27189055256975,2.6905702773156425e-08
135,40.407947592329755,3.481924869326484e-08
136,40.54399102638577,3.697700504217458e-08
137,40.68004806614577,4.78659576603398e-08
138,40.81610510590577,5.078564020457882e-08
139,40.952162145665774,1.6632626784889067e-09
140,41.0882055797218,1.6597551360136348e-09
141,41.2242626194818,1.6562592900180505e-09
142,41.3603196592418,1.6527746064035001e-09
143,41.4963766990018,1.6493011025417912e-09
144,41.63242013305782,1.6458382564615508e-09
145,41.76847717281782,1.6423871616088902e-09
146,41.90453421257782,1.6389472891214032e-09
147,42.04059125233782,1.6355186514119544e-09
148,42.17663468639385,1.632100731154721e-09
149,42.31269172615385,1.6289049588553024e-09
150,42.44874876591385,1.625512576197053e-09
151,42.584805805673845,1.6221314654606847e-09
152,42.720849239729866,1.6187611154803283e-09
153,42.85690627948987,1.6152192645578776e-09
154,42.99296331924987,1.61161493139313e-09
155,43.12902035900987,1.6082757368242958e-09
156,43.2650637930659,1.6045892659732823e-09
157,43.401120832825896,1.6012703740966875e-09
158,43.53717787258589,1.5974631370554154e-09
159,43.67323491234589,1.5934727183986094e-09
160,43.80927834640192,1.5901810608952484e-09
161,43.945335386161915,1.5859418600863682e-09
162,44.08139242592192,1.5813471623983563e-09
163,44.217449465681916,1.578114043787286e-09
164,44.353492899737944,1.5730361360974805e-09
165,44.48954993949794,1.5697857259513329e-09
166,44.62560697925794,1.5640427698677814e-09
167,44.761664019017935,1.5573852053243902e-09
168,44.89770745307396,1.5541545114309893e-09
169,45.03376449283397,1.5462342917304145e-09
170,45.169821532593964,1.542988797829286e-09
171,45.30587857235397,1.5334184960214205e-09
172,45.44192200640999,1.5215282974069568e-09
173,45.577979046169986,1.5182799913839822e-09
174,45.71403608592998,1.50340189249806e-09
175,45.85009312568999,1.5001547208551833e-09
176,45.986136559746015,1.481200181457324e-09
177,46.12219359950601,1.4566672707234645e-09
178,46.258250639266016,1.453411248154997e-09
179,46.394307679026014,1.4217532132341637e-09
180,46.53035111308204,1.4185094265839457e-09
181,46.66640815284203,1.3772326544656475e-09
182,46.802465192602035,1.3740298783456536e-09
183,46.93852223236203,1.3196009817807963e-09
184,47.07456566641806,1.3169125562348688e-09
185,47.210622706178064,1.2455763336914243e-09
186,47.34667974593806,1.1524699517973717e-09
187,47.482736785698066,1.1495646577531483e-09
188,47.618780219754086,1.0274524463939404e-09
189,47.75483725951408,1.0262176508843016e-09
190,47.89089429927408,8.64356071217909e-10
191,48.026951339034085,8.653491199391077e-10
192,48.16299477309011,6.548849113410186e-10
193,48.29905181285011,6.549580026523873e-10
194,48.43506041766452,1.4647824416397874e-09
195,48.43515728755569,1.464785371197725e-09
196,48.57116589237011,1.457144555844745e-09
197,48.707222932130115,1.452152971192515e-09
198,48.84326636618613,1.4662232449589667e-09
199,48.97932340594613,1.4354723110360559e-09
200,49.11538044570613,1.450227011628518e-09
201,49.251437485466134,1.4112521834160637e-09
202,49.38748091952216,1.433102409617535e-09
203,49.52353795928216,1.3830236640753826e-09
204,49.65959499904216,1.4099161734473368e-09
205,49.79565203880216,1.345669477810783e-09
206,49.93169547285818,1.3755090900322187e-09
207,50.06775251261818,1.3641409537350519e-09
208,50.20380955237818,1.2545240465779823e-09
209,50.33986659213818,1.3125787114018506e-09
210,50.47591002619421,1.1742033004826057e-09
211,50.61196706595421,1.2462236047778332e-09
212,50.74802410571421,1.0665672787334023e-09
213,50.884081145474205,1.1568615168330685e-09
214,51.02007355950089,1.1049265825666497e-09
215,51.02017559955957,1.1049287924178998e-09
216,51.15618161929023,2.082746716140442e-09
217,51.29223865905023,1.943723337362243e-09
218,51.42829569881023,2.203730421479148e-09
219,51.56433913286626,2.033512872307468e-09
220,51.700396172626256,2.3470988289867946e-09
221,51.83645321238625,2.138610327453104e-09
222,51.97251025214625,2.515032629702193e-09
223,52.10855368620228,2.259853742030599e-09
224,52.24455848141958,2.8413490411102995e-09
225,52.244662970504976,2.8413547238066648e-09
226,52.38066776572228,3.706125418845928e-09
227,52.516724805482276,4.783512378039476e-09
228,52.652768239538304,4.181989673070973e-09
229,52.7888252792983,5.501675662759344e-09
230,52.92482939423041,6.404827015976045e-09
231,52.924935243886196,6.404839825629713e-09
232,53.060939358818295,8.558647874665254e-09
233,53.19698279287432,7.482615281572302e-09
234,53.33303983263433,1.0116186030809777e-08
235,53.469096872394324,8.806502395556749e-09
236,53.60515391215433,1.20248271630496e-08
237,53.74119734621035,1.0429103993812062e-08
238,53.877254385970346,1.4364815791715686e-08
239,54.01331142573034,1.2418716884273547e-08
240,54.14936846549035,1.7244324610976303e-08
241,54.285411899546375,1.4867475239114373e-08
242,54.55752597906638,1.7905492019641912e-08
243,61.36021469861866,6.024810054382446e-10
244,68.16288981246697,6.246969271555611e-10
245,74.96557853201926,6.485555413323948e-10
246,81.76825364586757,6.505857230939901e-10
247,88.57094236541987,6.479094927219351e-10
248,95.37363108497215,6.43698234131651e-10
249,102.17630619882047,6.38195974594979e-10
250,108.97899491837275,6.316420623085412e-10
251,115.78168363792504,6.241781324923588e-10
252,122.58435875177334,6.160404058330147e-10
253,129.38704747132562,6.07360512230188e-10
254,136.05367915111793,5.984279355158864e-10
255,136.1897361908779,5.982418414908859e-10
256,204.0805119238249,4.971350615839535e-10
257,272.10735830223587,4.766707964590028e-10
258,340.1341910749428,5.311303529709101e-10
259,408.1610238476498,5.693368864576892e-10
260,476.18787022606074,5.980639472802232e-10
261,544.2147029987677,6.209890020416971e-10
262,612.2415493771787,6.536393335259862e-10
263,680.2683821498856,7.102979438635124e-10
264,748.2952149225927,7.650632416765439e-10
265,816.3220613010035,8.181269163934702e-10
266,884.3488940737104,8.697406799081752e-10
267,952.3757404521215,9.200918479626987e-10
268,1020.4025732248285,9.693240095080738e-10
269,1088.4294196032395,1.017550344624488e-09
270,1156.4562523759464,1.064862124922767e-09
271,1224.4830851486533,1.1113345533464584e-09
272,1292.5099315270643,1.1570306689652405e-09
273,1360.5367642997712,1.2020040851325353e-09
274,1496.590443450889,1.2899619158553193e-09
275,1632.644122602007,1.375513230218887e-09
276,1768.697801753125,1.4588979645915807e-09
277,1904.7514672985392,1.5403102013352675e-09
278,2040.805146449657,1.619910508088638e-09
279,2176.8588256007747,1.697834056523038e-09
280,2312.912504751893,1.7741963447433216e-09
281,2448.966183903011,1.849097258106025e-09
282,2585.0198630541286,1.922624075979001e-09
283,2721.0735285995424,1.9948537313908768e-09
284,2857.1272077506605,2.0658546008575076e-09
285,2993.180886901778,2.1356878162015696e-09
286,3129.2345660528963,2.2044083982629465e-09
287,3265.288245204014,2.272066128267253e-09
288,3401.3419107494283,2.338706255195594e-09
289,3537.3955899005464,2.4043701298351925e-09
290,3673.4492690516645,2.469095638775878e-09
291,3809.502948202782,2.532917657934723e-09
292,3945.5566273539002,2.5958683912883157e-09
293,4081.610306505018,2.657977671040941e-09
294,4217.663972050432,2.719273202444071e-09
295,4353.717651201549,2.7797808186198115e-09
296,4489.771330352668,2.839524621696188e-09
297,4625.825009503786,2.8985271783006176e-09
298,4761.878688654903,2.9568096610663123e-09
299,4897.932354200318,3.0143919663123563e-09
300,5033.986033351435,3.0712928576965584e-09
301,5170.039712502553,3.1275300189090525e-09
302,5306.0933916536715,3.1831201740236594e-09
303,5442.147070804789,3.2380791563434353e-09
304,5578.200749955907,3.2924219845892702e-09
305,5714.254415501321,3.3461629103032604e-09
306,5850.308094652439,3.3993155149236092e-09
307,5986.361773803556,3.4518927053057054e-09
308,6122.415452954675,3.5039067992013807e-09
309,6258.469132105793,3.5553695549112076e-09
310,6394.522797651206,3.606292204358348e-09
311,6530.576476802325,3.6566855154708172e-09
312,6666.630155953442,3.7065597826812314e-09
313,6802.68383510456,3.755924882162364e-09
314,6938.737514255678,3.804790293349371e-09
315,7074.791179801093,3.853165115236785e-09
316,7210.8448589522095,3.901058119547074e-09
317,7346.898538103329,3.948477725078318e-09
318,7482.952217254446,3.995432048102619e-09
319,7619.005896405564,4.041928910784451e-09
320,7755.059575556682,4.08797585934355e-09
321,7891.113241102096,4.133580173530906e-09
322,8027.166920253213,4.178748903036792e-09
323,8163.220599404332,4.223488845980046e-09
324,8299.27427855545,4.26780658256953e-09
325,8435.327957706568,4.311708482615414e-09
326,8571.38162325198,4.355200711070386e-09
327,8707.435302403099,4.398289260067107e-09
328,8843.488981554217,4.440979922751431e-09
329,8979.542660705336,4.4832783238833626e-09
330,9115.596339856453,4.525189924390095e-09
331,9251.650019007571,4.566720030826966e-09
332,9387.703684552984,4.607873790884122e-09
333,9523.757363704102,4.648656229774638e-09
334,9659.81104285522,4.689072215930668e-09
335,9795.86472200634,4.7291264931416176e-09
336,9931.918401157456,4.768823682002174e-09
337,10067.97206670287,4.808168274773542e-09
338,10204.025745853987,4.847164667970057e-09
339,10340.079425005106,4.885817128706385e-09
340,10476.133104156224,4.924129827413863e-09
341,10612.186783307343,4.962106827845164e-09
342,10748.24046245846,4.999752099553023e-09
343,10884.294128003874,5.037069513123736e-09
344,11020.34780715499,5.074062863635798e-09
345,11156.40148630611,5.110735842946898e-09
346,11292.455165457228,5.147092065220684e-09
347,11428.508844608346,5.1831350647939665e-09
348,11564.562510153759,5.218868290030543e-09
349,11700.616189304877,5.2542951356488184e-09
350,11836.669868455994,5.289418902203902e-09
351,11972.723547607113,5.324242829853422e-09
352,12108.777226758231,5.358770088727407e-09
353,12244.83090590935,5.39300378718549e-09
354,12380.884571454762,5.426946960154809e-09
355,12516.938250605881,5.460602604203007e-09
356,12652.991929756998,5.493973636365902e-09
357,12789.045608908116,5.527062922324499e-09
358,12925.099288059235,5.5598732769502615e-09
359,13061.15295360465,5.592407449403462e-09
360,13197.206632755768,5.624668158712279e-09
361,13333.260311906884,5.656658056741116e-09
362,13469.313991058003,5.688379751792421e-09
363,13605.36767020912,5.719835802666502e-09
364,16326.441198808663,6.296751036565959e-09
365,19047.514727408205,6.785042730178061e-09
366,21768.58826961345,7.197543332897587e-09
367,24489.661798212994,7.54430696845044e-09
368,27210.735326812537,7.83349401372026e-09
369,29931.808869017783,8.071899660578138e-09
370,32652.882397617326,8.265291654895153e-09
371,35373.95592621687,8.418637854029432e-09
372,38095.029468422115,8.536266216821958e-09
373,40816.10299702166,8.621981387710904e-09
374,43537.1765392269,8.679152231081968e-09
375,46258.25006782645,8.71077920296594e-09
376,48979.32359642599,8.719547427785395e-09
377,51700.39713863123,8.707869229156403e-09
378,54421.47066723078,8.677918813346947e-09
379,57142.54419583032,8.631660989342154e-09
380,59863.617738035566,8.5708751965717e-09
381,62584.691266635105,8.497175863327167e-09
382,65305.76479523465,8.412029847210019e-09
383,68026.8383374399,8.316771455996457e-09
384,70747.91186603945,8.212615513969202e-09
385,73468.98539463898,8.100668821031806e-09
386,76190.05893684423,7.981940230893857e-09
387,78911.13246544376,7.857482265420802e-09
388,81632.20599404332,7.72858073889501e-09
389,84353.27953624855,7.596763687748702e-09
390,87074.35306484811,7.464040375566833e-09
391,89795.42659344764,7.333214677766252e-09
392,92516.5001356529,7.208027975426686e-09
393,95237.57366425243,7.08890168497138e-09
394,97958.64719285197,6.975091256091831e-09
395,100679.72073505721,6.8662213256712785e-09
396,103400.79426365678,6.761952266302102e-09
397,106121.86779225631,6.661975953678311e-09
398,108842.94133446156,6.5660121286185694e-09
399,111564.0148630611,6.473805251587812e-09
400,114285.08839166064,6.385121785951018e-09
401,117006.16193386588,6.299747830822806e-09
402,119727.23546246543,6.217487061085091e-09
403,122448.30900467066,6.138158923279032e-09
404,125169.38253327021,6.061597049730654e-09
405,127890.45606186974,5.9876478642008075e-09
406,130611.529604075,5.916169359737637e-09
407,133332.60313267456,5.847029991698372e-09
408,136053.6766612741,5.780107728646792e-09
409,138774.75020347934,5.715289179199914e-09
410,141495.8237320789,5.652468833448022e-09
411,144216.89726067844,5.591548367759014e-09
412,146937.97080288368,5.5324360403244125e-09
413,149659.04433148322,5.4750461274248515e-09
414,156461.72816658777,5.338593061432107e-09
415,163264.4120016923,5.211295682147975e-09
416,170067.0958367969,5.092194730395365e-09
417,176869.77965829574,4.980464764276305e-09
418,183672.4634934003,4.87539119662973e-09
419,190475.14732850486,4.776351945454321e-09
420,197277.83116360943,4.682802668297371e-09
421,204080.51499871397,4.594264757960223e-09
422,210883.19883381855,4.510315527208785e-09
423,217685.88266892312,4.4305801249938316e-09
424,224488.56649042197,4.354724820641599e-09
425,231291.25032552652,4.2824514184239136e-09
426,238093.93416063106,4.2134925541203455e-09
427,244896.61799573564,4.1476077367102665e-09
428,251699.30183084018,4.084579991616642e-09
429,258501.98566594475,4.024212997025558e-09
430,265304.6695010493,3.9663286370391215e-09
431,272107.3533225482,3.910764900236599e-09
432,278910.0371576527,3.8573740594762336e-09
433,285712.7209927573,3.806021106322419e-09
434,292515.4048278619,3.756582380708085e-09
435,299318.08866296645,3.708944378432187e-09
436,306120.77249807096,3.66300271386551e-09
437,312923.45633317553,3.618661199888907e-09
438,319726.1401682801,3.575831044437308e-09
439,326528.82398977893,3.5344301368188846e-09
440,333331.50782488356,3.4943824206748914e-09
441,340134.1916599881,3.4556173359444508e-09
442,346936.87549509265,3.4180693167158843e-09
443,353739.5593301972,3.381677352479358e-09
444,360542.24316530174,3.3463845891483495e-09
445,367344.9270004063,3.312137973602518e-09
446,374147.6108219052,3.278887935899353e-09
447,380950.2946570097,3.2465881036456967e-09
