,E (eV),I (erg/s/cm**2)
0,1.360543186192048,8.749900438212297e-10
1,2.0408011735840956,1.0248865814416021e-09
2,2.7210727666801198,1.1465754489897893e-09
3,3.401344359776144,1.2508291036642927e-09
4,4.081615952872168,1.3430090929956265e-09
5,4.761873940264215,1.4262221171521073e-09
6,5.4421455333602395,1.5024649052265849e-09
7,6.122417126456264,1.5730917792852182e-09
8,6.802688719552288,1.6390782066260223e-09
9,7.482946706944335,1.7011483624527535e-09
10,8.16321830004036,1.7598673234154927e-09
11,8.843489893136384,1.8156716646798717e-09
12,9.523761486232408,2.7174858005995317e-08
13,10.204019473624456,1.9198826675795586e-09
14,10.884291066720479,1.9688201015870617e-09
15,11.564562659816504,2.0159253621769864e-09
16,12.244834252912527,2.0613690915003565e-09
17,12.92510584600855,2.1635124675143104e-09
18,13.7414208731606,6.824357449491975e-10
19,14.421692466256623,4.5486315428466094e-10
20,15.101964059352648,3.474214800498471e-10
21,15.782222046744696,2.9960316303886547e-10
22,16.46249363984072,2.8111041138041957e-10
23,17.142765232936743,2.768654293690396e-10
24,17.823036826032766,2.7940695660010076e-10
25,18.503294813424816,2.8506084805396456e-10
26,19.18356640652084,2.9202656828099094e-10
27,19.863837999616862,2.9942493674229243e-10
28,20.544109592712886,3.065494843023397e-10
29,21.224367580104932,3.094039206482706e-10
30,21.90463917320096,3.1152196602300636e-10
31,22.584910766296982,3.133278477290458e-10
32,23.26518235939301,3.148183164626321e-10
33,23.945440346785055,3.1600216987252e-10
34,24.62571193988108,3.1689456154400786e-10
35,25.305983532977105,3.1751272841369437e-10
36,25.986255126073125,3.1787510917545714e-10
37,26.66652671916915,3.180003161105582e-10
38,27.210741272505174,3.179420165140305e-10
39,27.3467847065612,3.179065166101052e-10
40,27.4828417463212,3.1786313470501957e-10
41,27.618898786081196,3.178118508481134e-10
42,27.7549558258412,3.1775280291470854e-10
43,27.89099925989722,3.1768597257563834e-10
44,28.02705629965722,3.176118058937916e-10
45,28.16311333941722,3.1753028133023174e-10
46,28.299170379177223,3.174415316340763e-10
47,28.435213813233247,3.1734553659195614e-10
48,28.571270852993244,3.1724273080266075e-10
49,28.70732789275325,3.1713309043445235e-10
50,28.843384932513246,3.170167430645878e-10
51,28.97942836656927,3.1689366605497573e-10
52,29.115485406329267,3.167642824235746e-10
53,29.25154244608927,3.1662856588865563e-10
54,29.387599485849268,3.164866384794341e-10
55,29.523642919905292,3.1633847484666196e-10
56,29.659699959665296,3.161844864906163e-10
57,29.795756999425294,3.160246445547289e-10
58,29.931814039185298,3.1585906517720546e-10
59,30.067857473241315,3.156877204794851e-10
60,30.20391451300132,3.155110102464356e-10
61,30.339971552761316,3.1532890280609245e-10
62,30.47602859252132,3.151415087467705e-10
63,30.612072026577344,3.1494879714279317e-10
64,30.74812906633734,3.147511564750249e-10
65,30.884186106097346,3.1454855226007335e-10
66,31.020243145857343,3.143410892484283e-10
67,31.156286579913367,3.141287337739922e-10
68,31.292343619673364,3.139118629393852e-10
69,31.42840065943337,3.136904394046326e-10
70,31.564457699193365,3.1346456239693705e-10
71,31.70050113324939,3.1323419533007964e-10
72,31.836558173009394,3.129997041645143e-10
73,31.97261521276939,3.1276104889493823e-10
74,32.108672252529395,3.1251832312429414e-10
75,32.244715686585415,3.122714875468181e-10
76,32.38077272634541,3.120208971607572e-10
77,32.51682976610541,3.1176650935867773e-10
78,32.652886805865414,3.1150841232311446e-10
79,32.78893023992144,3.112465638849557e-10
80,32.92498727968144,3.109813087756388e-10
81,33.06104431944144,3.107126013614901e-10
82,33.19710135920144,3.1044052490734024e-10
83,33.33314479325746,3.1016503453778324e-10
84,33.46920183301746,3.0988646456147446e-10
85,33.60525887277746,3.096047671248696e-10
86,33.74131591253746,3.0932002015683314e-10
87,33.87735934659349,3.0903217638584236e-10
88,34.01341638635349,3.087415601941964e-10
89,34.14947342611349,3.0844812125006936e-10
90,34.285530465873485,3.081519327375604e-10
91,34.421573899929506,3.0785294487907877e-10
92,34.55763093968951,3.074873252370564e-10
93,34.69368797944951,3.0704333390608494e-10
94,34.82974501920951,3.065499604413427e-10
95,34.96578845326554,3.0602470780267715e-10
96,35.101845493025536,3.0547983347712043e-10
97,35.23790253278553,3.049233710351483e-10
98,35.37395957254554,3.043596073619561e-10
99,35.51000300660156,3.0379116643075493e-10
100,35.646060046361555,3.032200345963212e-10
101,35.78211708612156,3.026472167890821e-10
102,35.918174125881556,3.020734306827371e-10
103,36.054217559937584,3.014990206454601e-10
104,36.19027459969758,3.0092446959920906e-10
105,36.326331639457585,3.003498375714725e-10
106,36.46238867921758,2.9977529100487186e-10
107,36.59844571897758,2.992011461685219e-10
108,36.73448915303361,2.9862780441840763e-10
109,36.870546192793604,2.980555058870773e-10
110,37.00660323255361,2.974841572311662e-10
111,37.142660272313606,2.969137759982837e-10
112,37.27870370636963,2.963442711786008e-10
113,37.41476074612963,2.957758763746767e-10
114,37.55081778588963,2.9520849919582064e-10
115,37.686874825649625,2.9464215563672043e-10
116,37.82291825970565,2.94120496135854e-10
117,37.958975299465656,2.9854963831362845e-10
118,38.095032339225654,3.099296176632709e-10
119,38.23108937898566,3.285767485852907e-10
120,38.36713281304168,3.5280657501233635e-10
121,38.503189852801675,3.668682676456886e-10
122,38.63924689256167,4.085895687356796e-10
123,38.77530393232168,4.689575666921636e-10
124,38.911347366377704,5.549653975345427e-10
125,39.0474044061377,5.860036831929305e-10
126,39.183461445897706,7.210902604533525e-10
127,39.3195184856577,9.120463357628525e-10
128,39.45556191971372,9.732979842645605e-10
129,39.59161895947372,1.265207150644133e-09
130,39.727675999233725,1.6742735773303328e-09
131,39.86373303899372,2.245638537803575e-09
132,39.99977647304975,2.413090986374389e-09
133,40.135833512809754,3.26790538010651e-09
134,40.27189055256975,4.4490414850398925e-09
135,40.407947592329755,4.780569492375054e-09
136,40.54399102638577,6.526301450262127e-09
137,40.68004806614577,8.917498809294267e-09
138,40.81610510590577,9.563407855447305e-09
139,40.952162145665774,2.81394672375098e-10
140,41.0882055797218,2.808582392945192e-10
141,41.2242626194818,2.803232284017958e-10
142,41.3603196592418,2.7978955351315206e-10
143,41.4963766990018,2.7925722153392786e-10
144,41.63242013305782,2.7872614820754076e-10
145,41.76847717281782,2.7819652268848975e-10
146,41.90453421257782,2.776682596011595e-10
147,42.04059125233782,2.77141365072068e-10
148,42.17663468639385,2.766157555554391e-10
149,42.31269172615385,2.7609161548176274e-10
150,42.44874876591385,2.7556886055672786e-10
151,42.584805805673845,2.7504749581669e-10
152,42.720849239729866,2.745274386373649e-10
153,42.85690627948987,2.740088690316522e-10
154,42.99296331924987,2.734917034831492e-10
155,43.12902035900987,2.7297594626114857e-10
156,43.2650637930659,2.7246151561394874e-10
157,43.401120832825896,2.7194858718129035e-10
158,43.53717787258589,2.71437078427159e-10
159,43.67323491234589,2.709269927284859e-10
160,43.80927834640192,2.7041824928161803e-10
161,43.945335386161915,2.6991101957901227e-10
162,44.08139242592192,2.6940522201196754e-10
163,44.217449465681916,2.689008591880689e-10
164,44.353492899737944,2.683978512608378e-10
165,44.48954993949794,2.6789636566846835e-10
166,44.62560697925794,2.673963216759808e-10
167,44.761664019017935,2.668977213624714e-10
168,44.89770745307396,2.660808911104937e-10
169,45.03376449283397,2.6558426237759825e-10
170,45.169821532593964,2.646392203323869e-10
171,45.30587857235397,2.635244401088918e-10
172,45.44192200640999,2.6305319073080273e-10
173,45.577979046169986,2.617129570679806e-10
174,45.71403608592998,2.6004274297580104e-10
175,45.85009312568999,2.5958725494036964e-10
176,45.986136559746015,2.57461784562303e-10
177,46.12219359950601,2.546912279218963e-10
178,46.258250639266016,2.542446594162398e-10
179,46.394307679026014,2.505782158930283e-10
180,46.53035111308204,2.501210205368606e-10
181,46.66640815284203,2.4520711851328106e-10
182,46.802465192602035,2.3856686293126826e-10
183,46.93852223236203,2.381321125117065e-10
184,47.07456566641806,2.291355777133278e-10
185,47.210622706178064,2.2872380067026782e-10
186,47.34667974593806,2.1644927954959577e-10
187,47.482736785698066,1.9977753559075488e-10
188,47.618780219754086,1.9939735253951108e-10
189,47.75483725951408,1.766292852928666e-10
190,47.89089429927408,1.7643536702453424e-10
191,48.026951339034085,1.4551388733308053e-10
192,48.16299477309011,1.0352711775850248e-10
193,48.29905181285011,1.0356273951188785e-10
194,48.43506041766452,2.4979911639826486e-10
195,48.43515728755569,2.4979961599531313e-10
196,48.57116589237011,2.493041110583934e-10
197,48.707222932130115,2.469465751341619e-10
198,48.84326636618613,2.4657153735448924e-10
199,48.97932340594613,2.435351180636989e-10
200,49.11538044570613,2.394891671276679e-10
201,49.251437485466134,2.391318826235813e-10
202,49.38748091952216,2.337991264303398e-10
203,49.52353795928216,2.333825778212221e-10
204,49.65959499904216,2.2637685133686297e-10
205,49.79565203880216,2.2596186555756947e-10
206,49.93169547285818,2.1660534355295516e-10
207,50.06775251261818,2.0388623352832648e-10
208,50.20380955237818,2.0349700323338439e-10
209,50.33986659213818,1.8662136544740354e-10
210,50.47591002619421,1.9085238260942375e-10
211,50.61196706595421,1.6768835114272172e-10
212,50.74802410571421,1.7280916073586941e-10
213,50.884081145474205,1.413428183912789e-10
214,51.02007355950089,1.451805479296555e-10
215,51.02017559955957,1.4518083829049972e-10
216,51.15618161929023,2.785379826247437e-10
217,51.29223865905023,2.616342633108749e-10
218,51.42829569881023,2.9198717631617393e-10
219,51.56433913286626,2.6885558553370564e-10
220,51.700396172626256,3.061198994209168e-10
221,51.83645321238625,2.752642279110277e-10
222,51.97251025214625,3.2088443229038207e-10
223,52.10855368620228,2.803644807279819e-10
224,52.24455848141958,3.3594801027591513e-10
225,52.244662970504976,3.359486821717327e-10
226,52.38066776572228,6.740484374560055e-10
227,52.516724805482276,5.95918278816782e-10
228,52.652768239538304,7.592612023596188e-10
229,52.7888252792983,6.758277617026391e-10
230,52.92482939423041,1.2542405826365072e-09
231,52.924935243886196,1.2542430911176012e-09
232,53.060939358818295,1.103817671828449e-09
233,53.19698279287432,1.4807517802889813e-09
234,53.33303983263433,1.296524476911948e-09
235,53.469096872394324,1.7553591162749892e-09
236,53.60515391215433,1.5301097609369537e-09
237,53.74119734621035,2.0881835208209247e-09
238,53.877254385970346,1.8131496808130665e-09
239,54.01331142573034,2.4941248553052548e-09
240,54.14936846549035,2.1582796273485415e-09
241,54.285411899546375,2.9884425048182452e-09
242,54.55752597906638,3.5940637018723897e-09
243,61.36021469861866,1.108751510651053e-10
244,68.16288981246697,1.1476344435152194e-10
245,74.96557853201926,1.1896989893340617e-10
246,81.76825364586757,1.1980773947153513e-10
247,88.57094236541987,1.1883044661098861e-10
248,95.37363108497215,1.1759888217725607e-10
249,102.17630619882047,1.1611170668943427e-10
250,108.97899491837275,1.1439732519742424e-10
251,115.78168363792504,1.1252412175757044e-10
252,122.58435875177334,1.1053611507027755e-10
253,129.38704747132562,1.0846474870022833e-10
254,136.05367915111793,1.0637783958754327e-10
255,136.1897361908779,1.0633480408403835e-10
256,204.0805119238249,8.492342044160748e-11
257,272.10735830223587,7.818909460344458e-11
258,340.1341910749428,8.592279149747878e-11
259,408.1610238476498,9.142275950375451e-11
260,476.18787022606074,9.563937047262446e-11
261,544.2147029987677,9.898624878951574e-11
262,612.2415493771787,1.0316022198421416e-10
263,680.2683821498856,1.1198426562201757e-10
264,748.2952149225927,1.2053852627339205e-10
265,816.3220613010035,1.2884098399627972e-10
266,884.3488940737104,1.3692655629133422e-10
267,952.3757404521215,1.4482159438767197e-10
268,1020.4025732248285,1.525465698421099e-10
269,1088.4294196032395,1.6011781946433486e-10
270,1156.4562523759464,1.6754866337987692e-10
271,1224.4830851486533,1.748501842298075e-10
272,1292.5099315270643,1.8203175096071355e-10
273,1360.5367642997712,1.8910138952152142e-10
274,1496.590443450889,2.0293189487560445e-10
275,1632.644122602007,2.1638799833823954e-10
276,1768.697801753125,2.2950639483459346e-10
277,1904.7514672985392,2.423169425503746e-10
278,2040.805146449657,2.5484445190829414e-10
279,2176.8588256007747,2.6710987725185465e-10
280,2312.912504751893,2.7913116717244803e-10
281,2448.966183903011,2.909238730116772e-10
282,2585.0198630541286,3.0250160311161294e-10
283,2721.0735285995424,3.1387636581091405e-10
284,2857.1272077506605,3.250588432953832e-10
285,2993.180886901778,3.360585923110837e-10
286,3129.2345660528963,3.4688421910112684e-10
287,3265.288245204014,3.575435132351515e-10
288,3401.3419107494283,3.680435578430549e-10
289,3537.3955899005464,3.7839082729121516e-10
290,3673.4492690516645,3.885912548334051e-10
291,3809.502948202782,3.9865030301328285e-10
292,3945.5566273539002,4.085730164494849e-10
293,4081.610306505018,4.1836406875479485e-10
294,4217.663972050432,4.280278003283696e-10
295,4353.717651201549,4.3756825897938447e-10
296,4489.771330352668,4.469892205294262e-10
297,4625.825009503786,4.562942209908776e-10
298,4761.878688654903,4.654865777348387e-10
299,4897.932354200318,4.745694076280328e-10
300,5033.986033351435,4.835456507687254e-10
301,5170.039712502553,4.924180773061547e-10
302,5306.0933916536715,5.011893071632681e-10
303,5442.147070804789,5.098618209158364e-10
304,5578.200749955907,5.184379707534091e-10
305,5714.254415501321,5.269199892291125e-10
306,5850.308094652439,5.35310003126429e-10
307,5986.361773803556,5.436100342003761e-10
308,6122.415452954675,5.518220111735592e-10
309,6258.469132105793,5.599477752553979e-10
310,6394.522797651206,5.679890851030678e-10
311,6530.576476802325,5.759476267747585e-10
312,6666.630155953442,5.838250115668224e-10
313,6802.68383510456,5.916227857640162e-10
314,6938.737514255678,5.993424330971734e-10
315,7074.791179801093,6.069853777008062e-10
316,7210.8448589522095,6.145529923457324e-10
317,7346.898538103329,6.220465943886307e-10
318,7482.952217254446,6.294674538472073e-10
319,7619.005896405564,6.368167947265303e-10
320,7755.059575556682,6.440957977324877e-10
321,7891.113241102096,6.513056013069194e-10
322,8027.166920253213,6.584473085449888e-10
323,8163.220599404332,6.655219823077264e-10
324,8299.27427855545,6.725306521819129e-10
325,8435.327957706568,6.794743141413519e-10
326,8571.38162325198,6.863539320140684e-10
327,8707.435302403099,6.931704430044566e-10
328,8843.488981554217,6.999247524595695e-10
329,8979.542660705336,7.066177399569914e-10
330,9115.596339856453,7.132502592272564e-10
331,9251.650019007571,7.198231394668051e-10
332,9387.703684552984,7.263371852791114e-10
333,9523.757363704102,7.327931820836999e-10
334,9659.81104285522,7.39191890364351e-10
335,9795.86472200634,7.455340519180345e-10
336,9931.918401157456,7.518203880385532e-10
337,10067.97206670287,7.580516007467129e-10
338,10204.025745853987,7.642283769044678e-10
339,10340.079425005106,7.703513832536215e-10
340,10476.133104156224,7.764212706837009e-10
341,10612.186783307343,7.824386744267355e-10
342,10748.24046245846,7.884042138850278e-10
343,10884.294128003874,7.943184934815148e-10
344,11020.34780715499,8.001821061926596e-10
345,11156.40148630611,8.059956282611202e-10
346,11292.455165457228,8.117596237591689e-10
347,11428.508844608346,8.174746442501037e-10
348,11564.562510153759,8.231412285747387e-10
349,11700.616189304877,8.287599058747298e-10
350,11836.669868455994,8.343311920363098e-10
351,11972.723547607113,8.398555919709505e-10
352,12108.777226758231,8.453336011578237e-10
353,12244.83090590935,8.507657036646091e-10
354,12380.884571454762,8.561523739951707e-10
355,12516.938250605881,8.614940789137122e-10
356,12652.991929756998,8.667912738862405e-10
357,12789.045608908116,8.720444059542171e-10
358,12925.099288059235,8.772539138068395e-10
359,13061.15295360465,8.82420226838649e-10
360,13197.206632755768,8.875437687477474e-10
361,13333.260311906884,8.926249531005599e-10
362,13469.313991058003,8.976641864459936e-10
363,13605.36767020912,9.02661868202381e-10
364,16326.441198808663,9.944476127395038e-10
365,19047.514727408205,1.072360617612601e-09
366,21768.58826961345,1.1383988924042552e-09
367,24489.661798212994,1.194126839841515e-09
368,27210.735326812537,1.2408137126838394e-09
369,29931.808869017783,1.2795162677594685e-09
370,32652.882397617326,1.3111315269804297e-09
371,35373.95592621687,1.3364322868329504e-09
372,38095.029468422115,1.3560920588341293e-09
373,40816.10299702166,1.3707032187472142e-09
374,43537.1765392269,1.3807906214926106e-09
375,46258.25006782645,1.3868220675550602e-09
376,48979.32359642599,1.389216537051644e-09
377,51700.39713863123,1.3883507850329162e-09
378,54421.47066723078,1.3845647099986731e-09
379,57142.54419583032,1.3781657998316178e-09
380,59863.617738035566,1.3694328443630218e-09
381,62584.691266635105,1.3586190828571447e-09
382,65305.76479523465,1.3459548934523483e-09
383,68026.8383374399,1.3316501127142223e-09
384,70747.91186603945,1.3158960508191867e-09
385,73468.98539463898,1.298867258353162e-09
386,76190.05893684423,1.2807230788187217e-09
387,78911.13246544376,1.261609024679582e-09
388,81632.20599404332,1.2416580032409396e-09
389,84353.27953624855,1.2209914115563488e-09
390,87074.35306484811,1.1998577477594803e-09
391,89795.42659344764,1.1788304738353875e-09
392,92516.5001356529,1.1586863779674645e-09
393,95237.57366425243,1.1395300260782898e-09
394,97958.64719285197,1.1212285148567315e-09
395,100679.72073505721,1.103721481096795e-09
396,103400.79426365678,1.0869543095883567e-09
397,106121.86779225631,1.0708774511575906e-09
398,108842.94133446156,1.0554458371741035e-09
399,111564.0148630611,1.0406183740136696e-09
400,114285.08839166064,1.0263575069113736e-09
401,117006.16193386588,1.0126288385740668e-09
402,119727.23546246543,9.994007977053283e-10
403,122448.30900467066,9.866443498283625e-10
404,125169.38253327021,9.743327411118593e-10
405,127890.45606186974,9.624412752955155e-10
406,130611.529604075,9.509471158138105e-10
407,133332.60313267456,9.398291095663886e-10
408,136053.6766612741,9.290676323127664e-10
409,138774.75020347934,9.18644450224579e-10
410,141495.8237320789,9.08542595336143e-10
411,144216.89726067844,8.987462573572864e-10
412,146937.97080288368,8.892406824745145e-10
413,149659.04433148322,8.800120860451132e-10
414,156461.72816658777,8.580697433813775e-10
415,163264.4120016923,8.375997080028698e-10
416,170067.0958367969,8.184477221446978e-10
417,176869.77965829574,8.00481047412418e-10
418,183672.4634934003,7.835847715828922e-10
419,190475.14732850486,7.676588586809393e-10
420,197277.83116360943,7.526157735358816e-10
421,204080.51499871397,7.383785520159114e-10
422,210883.19883381855,7.248792226898698e-10
423,217685.88266892312,7.120575059336537e-10
424,224488.56649042197,6.998597353665514e-10
425,231291.25032552652,6.882379585356598e-10
426,238093.93416063106,6.771491810996519e-10
427,244896.61799573564,6.665547303183796e-10
428,251699.30183084018,6.564197148187564e-10
429,258501.98566594475,6.467125645816549e-10
430,265304.6695010493,6.374046371791838e-10
431,272107.3533225482,6.284698798684435e-10
432,278910.0371576527,6.198845371934568e-10
433,285712.7209927573,6.116268985198383e-10
434,292515.4048278619,6.036770784104411e-10
435,299318.08866296645,5.960168248534725e-10
436,306120.77249807096,5.886293516356689e-10
437,312923.45633317553,5.814991911006454e-10
438,319726.1401682801,5.746120650759973e-10
439,326528.82398977893,5.679547694434616e-10
440,333331.50782488356,5.615150741083794e-10
441,340134.1916599881,5.55281632093364e-10
442,346936.87549509265,5.492439002256222e-10
443,353739.5593301972,5.4339206742269e-10
444,360542.24316530174,5.377169913048434e-10
445,367344.9270004063,5.322101405319214e-10
446,374147.6108219052,5.268635440771352e-10
447,380950.2946570097,5.216697448087443e-10
448,387752.9784921143,5.166217576247971e-10
