,E (eV),I (erg/s/cm**2)
0,1.360543186192048,8.442300895834922e-11
1,2.0408011735840956,9.888570693727052e-11
2,2.7210727666801198,1.1062680091360701e-10
3,3.401344359776144,1.206856664774509e-10
4,4.081615952872168,1.2957961003516503e-10
5,4.761873940264215,1.3760838011295526e-10
6,5.4421455333602395,1.4496463022551108e-10
7,6.122417126456264,1.5177903144465265e-10
8,6.802688719552288,1.5814570127592647e-10
9,7.482946706944335,1.6413451149977074e-10
10,8.16321830004036,1.697999832790868e-10
11,8.843489893136384,1.7518423924914022e-10
12,9.523761486232408,1.8032137124671406e-10
13,10.204019473624456,1.8523898957625424e-10
14,10.884291066720479,1.8996069522060646e-10
15,11.564562659816504,1.945056244617275e-10
16,12.244834252912527,1.9889024162848943e-10
17,12.92510584600855,2.0312866039661866e-10
18,13.7414208731606,1.5224767495456736e-10
19,14.421692466256623,1.0450468580603145e-10
20,15.101964059352648,8.197679912340968e-11
21,15.782222046744696,7.182913121195644e-11
22,16.46249363984072,6.757287274540608e-11
23,17.142765232936743,6.729080453814338e-11
24,17.823036826032766,6.699014841508509e-11
25,18.503294813424816,6.870864712056381e-11
26,19.18356640652084,6.867612803375851e-11
27,19.863837999616862,7.071035043461022e-11
28,20.544109592712886,6.980180935662492e-11
29,21.224367580104932,7.07807456578799e-11
30,21.90463917320096,7.156543811611448e-11
31,22.584910766296982,7.227826436733952e-11
32,23.26518235939301,6.875478396906384e-11
33,23.945440346785055,6.932801497065844e-11
34,24.62571193988108,6.983555142608709e-11
35,25.305983532977105,7.027999063043786e-11
36,25.986255126073125,7.066430181364371e-11
37,26.66652671916915,6.506540269265955e-11
38,27.210741272505174,6.530343207491036e-11
39,27.3467847065612,6.535814839765139e-11
40,27.4828417463212,6.541103582379974e-11
41,27.618898786081196,6.546208422230862e-11
42,27.7549558258412,6.551131610460116e-11
43,27.89099925989722,6.555872197305914e-11
44,28.02705629965722,6.560438829798309e-11
45,28.16311333941722,6.56483053363491e-11
46,28.299170379177223,6.569049536084209e-11
47,28.435213813233247,6.573094910662266e-11
48,28.571270852993244,6.576975171869664e-11
49,28.70732789275325,6.580689363351089e-11
50,28.843384932513246,6.584239679000403e-11
51,28.97942836656927,6.587625208516458e-11
52,29.115485406329267,6.590854318470447e-11
53,29.25154244608927,6.59392606510882e-11
54,29.387599485849268,6.596842595354887e-11
55,29.523642919905292,6.599603003892667e-11
56,29.659699959665296,6.602215508108868e-11
57,29.795756999425294,6.604679162864023e-11
58,29.931814039185298,6.606996062569529e-11
59,30.067857473241315,6.60916530071662e-11
60,30.20391451300132,6.611194934159085e-11
61,30.339971552761316,6.613084014999739e-11
62,30.47602859252132,6.614834578578002e-11
63,30.612072026577344,6.616445706921531e-11
64,30.74812906633734,6.61792529769357e-11
65,30.884186106097346,6.619272388693453e-11
66,31.020243145857343,6.620488954680556e-11
67,31.156286579913367,6.621574060976812e-11
68,31.292343619673364,6.622535441823268e-11
69,31.42840065943337,6.623372120284879e-11
70,31.564457699193365,6.624086001885145e-11
71,31.70050113324939,6.624676131973169e-11
72,31.836558173009394,6.625150082190451e-11
73,31.97261521276939,6.625506854778806e-11
74,32.108672252529395,6.625748282380486e-11
75,32.244715686585415,6.625873393637182e-11
76,32.38077272634541,5.7883078010574675e-11
77,32.51682976610541,5.7890453907148023e-11
78,32.652886805865414,5.789686387314957e-11
79,32.78893023992144,5.790229876447871e-11
80,32.92498727968144,5.790682144216023e-11
81,33.06104431944144,5.791042238685648e-11
82,33.19710135920144,5.791311601701474e-11
83,33.33314479325746,5.791489299123182e-11
84,33.46920183301746,5.7915814847275414e-11
85,33.60525887277746,5.791587183795248e-11
86,33.74131591253746,5.791507782918301e-11
87,33.87735934659349,5.791342327835103e-11
88,34.01341638635349,5.7910968350434e-11
89,34.14947342611349,5.790770312117779e-11
90,34.285530465873485,5.790364088219235e-11
91,34.421573899929506,5.789877184835526e-11
92,34.55763093968951,5.789315488495983e-11
93,34.69368797944951,5.7886779837288684e-11
94,34.82974501920951,5.78796594299604e-11
95,34.96578845326554,5.7871783663091784e-11
96,35.101845493025536,5.7863210084386717e-11
97,35.23790253278553,5.78539283374876e-11
98,35.37395957254554,5.7843950562854314e-11
99,35.51000300660156,5.783326653571279e-11
100,35.646060046361555,5.782193253695213e-11
101,35.78211708612156,5.780993799937916e-11
102,35.918174125881556,5.779729445078939e-11
103,36.054217559937584,5.7783991526450645e-11
104,36.19027459969758,5.7770084173136626e-11
105,36.326331639457585,5.7755561645336683e-11
106,36.46238867921758,5.77404349378412e-11
107,36.59844571897758,5.7724714892389014e-11
108,36.73448915303361,5.770839086364537e-11
109,36.870546192793604,5.7691516287137545e-11
110,37.00660323255361,5.767408012649139e-11
111,37.142660272313606,5.7656092718762415e-11
112,37.27870370636963,5.763754319925638e-11
113,37.41476074612963,5.76184837960264e-11
114,37.55081778588963,5.759890328302159e-11
115,37.686874825649625,5.757881148206206e-11
116,37.82291825970565,5.7558197332082564e-11
117,37.958975299465656,5.753711187034198e-11
118,38.095032339225654,5.7515543717774174e-11
119,38.23108937898566,5.749350214503318e-11
120,38.36713281304168,5.747097595836954e-11
121,38.503189852801675,5.7448015021760205e-11
122,38.63924689256167,5.742460777446466e-11
123,38.77530393232168,5.7355395832755494e-11
124,38.911347366377704,5.722911068458715e-11
125,39.0474044061377,5.705207898464179e-11
126,39.183461445897706,5.686953234269699e-11
127,39.3195184856577,5.6687951896611155e-11
128,39.45556191971372,5.65073126284314e-11
129,39.59161895947372,5.632764809481656e-11
130,39.727675999233725,5.6148933190941687e-11
131,39.86373303899372,5.597116237910189e-11
132,39.99977647304975,5.579431119939061e-11
133,40.135833512809754,5.561841224219818e-11
134,40.27189055256975,5.544344089468783e-11
135,40.407947592329755,5.703382499210362e-11
136,40.54399102638577,3.131916372249108e-10
137,40.68004806614577,9.480007157205885e-10
138,40.81610510590577,1.5172294360682157e-09
139,40.952162145665774,5.45822895059981e-11
140,41.0882055797218,5.441275162607833e-11
141,41.2242626194818,5.424412151253028e-11
142,41.3603196592418,5.4076375644044993e-11
143,41.4963766990018,5.390950868257565e-11
144,41.63242013305782,5.3743497726099487e-11
145,41.76847717281782,5.3578372699755386e-11
146,41.90453421257782,5.341411062789398e-11
147,42.04059125233782,5.325070623658716e-11
148,42.17663468639385,5.308813715265289e-11
149,42.31269172615385,5.292643247700918e-11
150,42.44874876591385,5.276556977035369e-11
151,42.584805805673845,5.26055438302732e-11
152,42.720849239729866,5.2446332791384184e-11
153,42.85690627948987,5.2287965004871276e-11
154,42.99296331924987,5.2130418533868843e-11
155,43.12902035900987,5.197368826574585e-11
156,43.2650637930659,5.181775283377692e-11
157,43.401120832825896,5.166263985047537e-11
158,43.53717787258589,5.1508327895844664e-11
159,43.67323491234589,5.1354811951969404e-11
160,43.80927834640192,5.120207112956757e-11
161,43.945335386161915,5.105013237105431e-11
162,44.08139242592192,5.089897471591427e-11
163,44.217449465681916,5.074859325691715e-11
164,44.353492899737944,5.0598967596269063e-11
165,44.48954993949794,5.0450123978410526e-11
166,44.62560697925794,5.030204197445255e-11
167,44.761664019017935,5.015471674437868e-11
168,44.89770745307396,5.000812836039991e-11
169,45.03376449283397,4.9862302456372515e-11
170,45.169821532593964,4.971721905467302e-11
171,45.30587857235397,4.957287343190202e-11
172,45.44192200640999,4.942924610889166e-11
173,45.577979046169986,4.928636211288375e-11
174,45.71403608592998,4.914420193054601e-11
175,45.85009312568999,4.9002760945570426e-11
176,45.986136559746015,4.886202011781536e-11
177,46.12219359950601,4.8722003916009154e-11
178,46.258250639266016,4.858269324710077e-11
179,46.394307679026014,4.844408362585999e-11
180,46.53035111308204,4.8306156452573115e-11
181,46.66640815284203,4.8168935605449957e-11
182,46.802465192602035,4.803240246888425e-11
183,46.93852223236203,4.7896552633896696e-11
184,47.07456566641806,4.7761367953515196e-11
185,47.210622706178064,4.7626871760864306e-11
186,47.34667974593806,4.749304587383444e-11
187,47.482736785698066,4.735988599394063e-11
188,47.618780219754086,4.722737437294562e-11
189,47.75483725951408,4.7095533842441375e-11
190,47.89089429927408,4.696434662206306e-11
191,48.026951339034085,3.6262122403380496e-11
192,48.16299477309011,2.1376966818523455e-11
193,48.29905181285011,2.157938768743028e-11
194,48.43506041766452,4.644598828864626e-11
195,48.43515728755569,4.6446081180402597e-11
196,48.57116589237011,4.631805202908894e-11
197,48.707222932130115,4.619069798261744e-11
198,48.84326636618613,4.6063955731574866e-11
199,48.97932340594613,4.593784701068469e-11
200,49.11538044570613,4.581235496175725e-11
201,49.251437485466134,4.568747565155978e-11
202,49.38748091952216,4.556319258547198e-11
203,49.52353795928216,4.543952707917965e-11
204,49.65959499904216,4.531646263464689e-11
205,49.79565203880216,4.519399540781516e-11
206,49.93169547285818,4.507210932653565e-11
207,50.06775251261818,4.495082522052133e-11
208,50.20380955237818,4.483012698466759e-11
209,50.33986659213818,4.4710010884359394e-11
210,50.47591002619421,4.459046119805715e-11
211,50.61196706595421,3.4538636228887123e-11
212,50.74802410571421,3.4833336403922185e-11
213,50.884081145474205,2.256849735467207e-11
214,51.02007355950089,2.290343231175466e-11
215,51.02017559955957,2.2903478118579586e-11
216,51.15618161929023,4.400130986494613e-11
217,51.29223865905023,4.3885166425011e-11
218,51.42829569881023,4.3769576156827766e-11
219,51.56433913286626,4.3654524024762595e-11
220,51.700396172626256,4.354002964128173e-11
221,51.83645321238625,3.448350419156511e-11
222,51.97251025214625,3.51884481195176e-11
223,52.10855368620228,2.549716529652793e-11
224,52.24455848141958,2.5940872619361897e-11
225,52.244662970504976,2.5940924501091462e-11
226,52.38066776572228,4.2975618891417436e-11
227,52.516724805482276,3.5176325830260154e-11
228,52.652768239538304,3.6147415764338473e-11
229,52.7888252792983,2.8660911947617157e-11
230,52.92482939423041,4.2533530458827615e-11
231,52.924935243886196,4.253361552588612e-11
232,53.060939358818295,4.2424354032348455e-11
233,53.19698279287432,4.2315633651320026e-11
234,53.33303983263433,4.220743035905656e-11
235,53.469096872394324,4.2099730087779826e-11
236,53.60515391215433,4.199252967853921e-11
237,53.74119734621035,4.1885815388815366e-11
238,53.877254385970346,4.177960537275107e-11
239,54.01331142573034,1.4911405016427092e-10
240,54.14936846549035,1.3324147210792582e-10
241,54.285411899546375,2.519140187959204e-10
242,54.55752597906638,3.5848647090242237e-10
243,61.36021469861866,1.743695360680172e-11
244,68.16288981246697,1.911713801749982e-11
245,74.96557853201926,1.9960967422214237e-11
246,81.76825364586757,2.0272651217669066e-11
247,88.57094236541987,1.9390249882447954e-11
248,95.37363108497215,1.7550693771695343e-11
249,102.17630619882047,1.8059844132415096e-11
250,108.97899491837275,1.778528684757318e-11
251,115.78168363792504,1.704347619995388e-11
252,122.58435875177334,1.6262247232499037e-11
253,129.38704747132562,1.552899968633262e-11
254,136.05367915111793,1.4855728100278437e-11
255,136.1897361908779,1.4842441847633223e-11
256,204.0805119238249,9.995962146294887e-12
257,272.10735830223587,8.28098247814711e-12
258,340.1341910749428,8.75877328439144e-12
259,408.1610238476498,9.13588768705027e-12
260,476.18787022606074,9.451803393042667e-12
261,544.2147029987677,9.719251252412558e-12
262,612.2415493771787,9.96899585213813e-12
263,680.2683821498856,1.078715239121553e-11
264,748.2952149225927,1.1591258418181703e-11
265,816.3220613010035,1.2375139187498631e-11
266,884.3488940737104,1.3140973765285812e-11
267,952.3757404521215,1.3890513991499001e-11
268,1020.4025732248285,1.4625197914501328e-11
269,1088.4294196032395,1.5346228850028004e-11
270,1156.4562523759464,1.605462764767378e-11
271,1224.4830851486533,1.6751272581034337e-11
272,1292.5099315270643,1.7436927032415534e-11
273,1360.5367642997712,1.811226021472042e-11
274,1496.590443450889,1.943426763406707e-11
275,1632.644122602007,2.072131447761401e-11
276,1768.697801753125,2.197666250457155e-11
277,1904.7514672985392,2.320301065820119e-11
278,2040.805146449657,2.440262903091093e-11
279,2176.8588256007747,2.5577452137994554e-11
280,2312.912504751893,2.6729148132890543e-11
281,2448.966183903011,2.7859169739568217e-11
282,2585.0198630541286,2.8968793158206195e-11
283,2721.0735285995424,3.005914796505514e-11
284,2857.1272077506605,3.1131241379055915e-11
285,2993.180886901778,3.2185976234634024e-11
286,3129.2345660528963,3.3224166758384974e-11
287,3265.288245204014,3.4246550839711446e-11
288,3401.3419107494283,3.525380008683671e-11
289,3537.3955899005464,3.624652886623822e-11
290,3673.4492690516645,3.722530056850818e-11
291,3809.502948202782,3.8190634150449197e-11
292,3945.5566273539002,3.914300908875734e-11
293,4081.610306505018,4.008286971871483e-11
294,4217.663972050432,4.101062882556771e-11
295,4353.717651201549,4.192667144083603e-11
296,4489.771330352668,4.283135680535353e-11
297,4625.825009503786,4.37250213922441e-11
298,4761.878688654903,4.46079808513151e-11
299,4897.932354200318,4.548053185839642e-11
300,5033.986033351435,4.6342954202186986e-11
301,5170.039712502553,4.719551156262054e-11
302,5306.0933916536715,4.803845328421968e-11
303,5442.147070804789,4.887201545657387e-11
304,5578.200749955907,4.969642196033643e-11
305,5714.254415501321,5.0511885276809553e-11
306,5850.308094652439,5.1318607820131735e-11
307,5986.361773803556,5.211678196327654e-11
308,6122.415452954675,5.290659128478784e-11
309,6258.469132105793,5.3688210956176106e-11
310,6394.522797651206,5.44618083136412e-11
311,6530.576476802325,5.522754377728907e-11
312,6666.630155953442,5.598557065702516e-11
313,6802.68383510456,5.673603601036071e-11
314,6938.737514255678,5.747908099338912e-11
315,7074.791179801093,5.821484105451407e-11
316,7210.8448589522095,5.894344672200611e-11
317,7346.898538103329,5.966502330981351e-11
318,7482.952217254446,6.037969157085021e-11
319,7619.005896405564,6.108756784890039e-11
320,7755.059575556682,6.178876440830377e-11
321,7891.113241102096,6.248338947804316e-11
322,8027.166920253213,6.317154788539474e-11
323,8163.220599404332,6.385334067289328e-11
324,8299.27427855545,6.452886564953514e-11
325,8435.327957706568,6.519821747455304e-11
326,8571.38162325198,6.586148772474049e-11
327,8707.435302403099,6.65187654075861e-11
328,8843.488981554217,6.717013656519673e-11
329,8979.542660705336,6.781568470545576e-11
330,9115.596339856453,6.845549093215713e-11
331,9251.650019007571,6.90896339779596e-11
332,9387.703684552984,6.971819022883675e-11
333,9523.757363704102,7.034123427514616e-11
334,9659.81104285522,7.095883834416196e-11
335,9795.86472200634,7.157107276826495e-11
336,9931.918401157456,7.217800607114776e-11
337,10067.97206670287,7.277970487390816e-11
338,10204.025745853987,7.337623433752453e-11
339,10340.079425005106,7.396765773656216e-11
340,10476.133104156224,7.455403681839928e-11
341,10612.186783307343,7.513543183820263e-11
342,10748.24046245846,7.571190159433571e-11
343,10884.294128003874,7.628350337113622e-11
344,11020.34780715499,7.685029341615161e-11
345,11156.40148630611,7.741232638054971e-11
346,11292.455165457228,7.79696557391041e-11
347,11428.508844608346,7.852233382907648e-11
348,11564.562510153759,7.907041166746503e-11
349,11700.616189304877,7.961393949401562e-11
350,11836.669868455994,8.01529661206112e-11
351,11972.723547607113,8.068753947891833e-11
352,12108.777226758231,8.121770645596343e-11
353,12244.83090590935,8.174351298119425e-11
354,12380.884571454762,8.226500398069618e-11
355,12516.938250605881,8.27822237017412e-11
356,12652.991929756998,8.32952152573658e-11
357,12789.045608908116,8.380402103557869e-11
358,12925.099288059235,8.430868257257054e-11
359,13061.15295360465,8.480924049925671e-11
360,13197.206632755768,8.530573500419752e-11
361,13333.260311906884,8.579820519269631e-11
362,13469.313991058003,8.628668962092847e-11
363,13605.36767020912,8.677122606851312e-11
364,16326.441198808663,9.568568303155525e-11
365,19047.514727408205,1.0328089757469576e-10
366,21768.58826961345,1.097456644175939e-10
367,24489.661798212994,1.1522767159582453e-10
368,27210.735326812537,1.1984667376176569e-10
369,29931.808869017783,1.2370234760231008e-10
370,32652.882397617326,1.268792998377315e-10
371,35373.95592621687,1.294504335820851e-10
372,38095.029468422115,1.3147930931317596e-10
373,40816.10299702166,1.3302186084904435e-10
374,43537.1765392269,1.3412768040619134e-10
375,46258.25006782645,1.3484100556423882e-10
376,48979.32359642599,1.352014941844508e-10
377,51700.39713863123,1.352448446195361e-10
378,54421.47066723078,1.350032999373259e-10
379,57142.54419583032,1.3450606474423917e-10
380,59863.617738035566,1.3377965306202306e-10
381,62584.691266635105,1.3284818286978327e-10
382,65305.76479523465,1.3173362776321683e-10
383,68026.8383374399,1.3045603357960242e-10
384,70747.91186603945,1.2903370660836006e-10
385,73468.98539463898,1.2748337853021802e-10
386,76190.05893684423,1.2582035112929731e-10
387,78911.13246544376,1.2405862477398635e-10
388,81632.20599404332,1.2221101275086894e-10
389,84353.27953624855,1.2028924309000215e-10
390,87074.35306484811,1.183040503133056e-10
391,89795.42659344764,1.1626525801497546e-10
392,92516.5001356529,1.1426428582172267e-10
393,95237.57366425243,1.1237423962595516e-10
394,97958.64719285197,1.105685372046055e-10
395,100679.72073505721,1.0884122273672932e-10
396,103400.79426365678,1.0718690752928296e-10
397,106121.86779225631,1.0560070268516936e-10
398,108842.94133446156,1.0407816146064102e-10
399,111564.0148630611,1.0261522928802582e-10
400,114285.08839166064,1.012082007227601e-10
401,117006.16193386588,9.985368193278455e-11
402,119727.23546246543,9.854855787601352e-11
403,122448.30900467066,9.72899638169335e-11
404,125169.38253327021,9.607526007367314e-11
405,127890.45606186974,9.490200994155462e-11
406,130611.529604075,9.376796021562551e-11
407,133332.60313267456,9.267102378163193e-11
408,136053.6766612741,9.160926440515537e-11
409,138774.75020347934,9.058088302856934e-11
410,141495.8237320789,8.958420548344635e-11
411,144216.89726067844,8.861767179661512e-11
412,146937.97080288368,8.767982630832496e-11
413,149659.04433148322,8.676930895464691e-11
414,156461.72816658777,8.460442294855677e-11
415,163264.4120016923,8.258480205401578e-11
416,170067.0958367969,8.069522625900673e-11
417,176869.77965829574,7.892259884338083e-11
418,183672.4634934003,7.725558189209139e-11
419,190475.14732850486,7.568430529259408e-11
420,197277.83116360943,7.420013235350455e-11
421,204080.51499871397,7.279546934506586e-11
422,210883.19883381855,7.146360984990244e-11
423,217685.88266892312,7.019860634899138e-11
424,224488.56649042197,6.89951638763729e-11
425,231291.25032552652,6.784855114824691e-11
426,238093.93416063106,6.6754526155616e-11
427,244896.61799573564,6.570927323942226e-11
428,251699.30183084018,6.470934983979563e-11
429,258501.98566594475,6.375164111113984e-11
430,265304.6695010493,6.28333210733142e-11
431,272107.3533225482,6.195181920211703e-11
432,278910.0371576527,6.110479169833557e-11
433,285712.7209927573,6.029009649252179e-11
434,292515.4048278619,5.950577159258302e-11
435,299318.08866296645,5.87500161779765e-11
436,306120.77249807096,5.8021174048134774e-11
437,312923.45633317553,5.7317719109420664e-11
438,319726.1401682801,5.6638242575249985e-11
439,326528.82398977893,5.5981441723139924e-11
440,333331.50782488356,5.534610985494593e-11
441,340134.1916599881,5.473112743363168e-11
442,346936.87549509265,5.41354542320047e-11
443,353739.5593301972,5.3558122257552754e-11
444,360542.24316530174,5.299822948647654e-11
445,367344.9270004063,5.2454934175372754e-11
446,374147.6108219052,5.1927449881051573e-11
447,380950.2946570097,5.14150408447614e-11
448,387752.9784921143,5.091701789807037e-11
449,394555.66232721886,5.0432734784112765e-11
