,E (eV),I (erg/s/cm**2)
0,1.360543186192048,2.795051019397176e-10
1,2.0408011735840956,3.2738775766117e-10
2,2.7210727666801198,3.662598105438036e-10
3,3.401344359776144,3.995623933291071e-10
4,4.081615952872168,4.2900818815941716e-10
5,4.761873940264215,4.555895932376282e-10
6,5.4421455333602395,4.799444398958265e-10
7,6.122417126456264,5.02505349900274e-10
8,6.802688719552288,5.235839245941071e-10
9,7.482946706944335,5.43411493319347e-10
10,8.16321830004036,5.621685629360874e-10
11,8.843489893136384,5.799945921581642e-10
12,9.523761486232408,5.970024508021041e-10
13,10.204019473624456,6.132835503442545e-10
14,10.884291066720479,6.2891602819286e-10
15,11.564562659816504,6.439632401617566e-10
16,12.244834252912527,6.58479695844674e-10
17,12.92510584600855,6.725121223651933e-10
18,13.7414208731606,2.922047547193486e-10
19,14.421692466256623,1.9453542709341765e-10
20,15.101964059352648,1.4838379680335174e-10
21,15.782222046744696,1.278518465823446e-10
22,16.46249363984072,1.19950443736558e-10
23,17.142765232936743,1.1820403682118892e-10
24,17.823036826032766,1.1940195125830828e-10
25,18.503294813424816,1.2195965490641524e-10
26,19.18356640652084,1.2509855214369102e-10
27,19.863837999616862,1.2843710478202935e-10
28,20.544109592712886,1.316979929835026e-10
29,21.224367580104932,1.3311496334591573e-10
30,21.90463917320096,1.3420563195316835e-10
31,22.584910766296982,1.3502762527666166e-10
32,23.26518235939301,1.356650140804361e-10
33,23.945440346785055,1.3610060096373483e-10
34,24.62571193988108,1.3667590659179504e-10
35,25.305983532977105,1.36774696425467e-10
36,25.986255126073125,1.3712431653435224e-10
37,26.66652671916915,1.3687906281092166e-10
38,27.210741272505174,1.370117650896283e-10
39,27.3467847065612,1.370354220803833e-10
40,27.4828417463212,1.3705547530905344e-10
41,27.618898786081196,1.3707191310087823e-10
42,27.7549558258412,1.3708479198555645e-10
43,27.89099925989722,1.3709410111778178e-10
44,28.02705629965722,1.371000303533903e-10
45,28.16311333941722,1.3642880854103717e-10
46,28.299170379177223,1.364312020021594e-10
47,28.435213813233247,1.3643024446121738e-10
48,28.571270852993244,1.3642612033171747e-10
49,28.70732789275325,1.3641881710775585e-10
50,28.843384932513246,1.364083875124212e-10
51,28.97942836656927,1.363948196436507e-10
52,29.115485406329267,1.3637829370696481e-10
53,29.25154244608927,1.3635879652372104e-10
54,29.387599485849268,1.363363789439167e-10
55,29.523642919905292,1.363110283975456e-10
56,29.659699959665296,1.362829205891469e-10
57,29.795756999425294,1.3625204174689922e-10
58,29.931814039185298,1.3621844060873036e-10
59,30.067857473241315,1.361821038655862e-10
60,30.20391451300132,1.3522160318690585e-10
61,30.339971552761316,1.3518423031237224e-10
62,30.47602859252132,1.351443180347844e-10
63,30.612072026577344,1.3510185205502076e-10
64,30.74812906633734,1.3505699810743128e-10
65,30.884186106097346,1.3500974063299649e-10
66,31.020243145857343,1.3496012391798206e-10
67,31.156286579913367,1.349081328146144e-10
68,31.292343619673364,1.3485392867309092e-10
69,31.42840065943337,1.3479749505129574e-10
70,31.564457699193365,1.3473887417837284e-10
71,31.70050113324939,1.346780499565199e-10
72,31.836558173009394,1.3461517947820078e-10
73,31.97261521276939,1.3455024538360749e-10
74,32.108672252529395,1.3448328780486064e-10
75,32.244715686585415,1.3441428972608122e-10
76,32.38077272634541,1.3434340402377968e-10
77,32.51682976610541,1.3427061236354064e-10
78,32.652886805865414,1.3293519645985966e-10
79,32.78893023992144,1.3286386955871733e-10
80,32.92498727968144,1.3279079276767296e-10
81,33.06104431944144,1.3271594704912341e-10
82,33.19710135920144,1.3263936824592094e-10
83,33.33314479325746,1.3256103752209555e-10
84,33.46920183301746,1.3248109826138935e-10
85,33.60525887277746,1.3239953044817685e-10
86,33.74131591253746,1.3231636801265905e-10
87,33.87735934659349,1.322315913330807e-10
88,34.01341638635349,1.321453397569739e-10
89,34.14947342611349,1.3205759252631746e-10
90,34.285530465873485,1.3196838167369632e-10
91,34.421573899929506,1.318776866334242e-10
92,34.55763093968951,1.3178564308284495e-10
93,34.69368797944951,1.3169222933517209e-10
94,34.82974501920951,1.3159747563624183e-10
95,34.96578845326554,1.3150136062712718e-10
96,35.101845493025536,1.3140401628840769e-10
97,35.23790253278553,1.3130542006616354e-10
98,35.37395957254554,1.312056005332766e-10
99,35.51000300660156,1.311045355397724e-10
100,35.646060046361555,1.3100235337695884e-10
101,35.78211708612156,1.3089903086946733e-10
102,35.918174125881556,1.2908254807384808e-10
103,36.054217559937584,1.289834691167299e-10
104,36.19027459969758,1.2888335927963384e-10
105,36.326331639457585,1.287821950181758e-10
106,36.46238867921758,1.2868000136609296e-10
107,36.59844571897758,1.2857680289255116e-10
108,36.73448915303361,1.2847257620933699e-10
109,36.870546192793604,1.2836744055101963e-10
110,37.00660323255361,1.2826137157143997e-10
111,37.142660272313606,1.2813628881494313e-10
112,37.27870370636963,1.2796842727643032e-10
113,37.41476074612963,1.277702861820571e-10
114,37.55081778588963,1.275497584168979e-10
115,37.686874825649625,1.2731191158436267e-10
116,37.82291825970565,1.2705991325079658e-10
117,37.958975299465656,1.2679586417848808e-10
118,38.095032339225654,1.2652093878188387e-10
119,38.23108937898566,1.262454100158653e-10
120,38.36713281304168,1.2597042926244723e-10
121,38.503189852801675,1.256960931793613e-10
122,38.63924689256167,1.2542236370948128e-10
123,38.77530393232168,1.2514924756730878e-10
124,38.911347366377704,1.248767075343844e-10
125,39.0474044061377,1.2460483748218902e-10
126,39.183461445897706,1.243335995609617e-10
127,39.3195184856577,1.2406299966218312e-10
128,39.45556191971372,1.2437477126039576e-10
129,39.59161895947372,1.8933448678359827e-10
130,39.727675999233725,3.427003322180073e-10
131,39.86373303899372,4.747189376583908e-10
132,39.99977647304975,7.161714162829957e-10
133,40.135833512809754,1.0912851095577566e-09
134,40.27189055256975,1.620755597382707e-09
135,40.407947592329755,1.8327978548078974e-09
136,40.54399102638577,2.6441321957925044e-09
137,40.68004806614577,3.787696083825811e-09
138,40.81610510590577,4.153690245722703e-09
139,40.952162145665774,1.2086734848181677e-10
140,41.0882055797218,1.2060545960342746e-10
141,41.2242626194818,1.2034431325443576e-10
142,41.3603196592418,1.2008387264177568e-10
143,41.4963766990018,1.198241410305059e-10
144,41.63242013305782,1.1956508246000972e-10
145,41.76847717281782,1.1930677831105648e-10
146,41.90453421257782,1.1904919208766635e-10
147,42.04059125233782,1.1879232654758144e-10
148,42.17663468639385,1.18536146041098e-10
149,42.31269172615385,1.1828072967255195e-10
150,42.44874876591385,1.1802604133722436e-10
151,42.584805805673845,1.1777208324091774e-10
152,42.720849239729866,1.175188200569592e-10
153,42.85690627948987,1.1726632880939667e-10
154,42.99296331924987,1.1701457373992894e-10
155,43.12902035900987,1.1676355653832486e-10
156,43.2650637930659,1.1651324223806635e-10
157,43.401120832825896,1.1626370581098197e-10
158,43.53717787258589,1.1601491188102414e-10
159,43.67323491234589,1.15766861708889e-10
160,43.80927834640192,1.1551952064315627e-10
161,43.945335386161915,1.152729617618519e-10
162,44.08139242592192,1.1502714999844107e-10
163,44.217449465681916,1.1478208626801412e-10
164,44.353492899737944,1.1453773626845093e-10
165,44.48954993949794,1.1429417117823833e-10
166,44.62560697925794,1.1405135632655761e-10
167,44.761664019017935,1.138092922839309e-10
168,44.89770745307396,1.1356794510377297e-10
169,45.03376449283397,1.1332738418845456e-10
170,45.169821532593964,1.130875752411766e-10
171,45.30587857235397,1.1284851851375451e-10
172,45.44192200640999,1.1261018042017174e-10
173,45.577979046169986,1.123726286535497e-10
174,45.71403608592998,1.1213582934673508e-10
175,45.85009312568999,1.1189978237937311e-10
176,45.986136559746015,1.1166445463310661e-10
177,46.12219359950601,1.1142991212940203e-10
178,46.258250639266016,1.1119612135585027e-10
179,46.394307679026014,1.1096308199725717e-10
180,46.53035111308204,1.1073076127612971e-10
181,46.66640815284203,1.1049922362893485e-10
182,46.802465192602035,1.1026843600213984e-10
183,46.93852223236203,1.0700526985496086e-10
184,47.07456566641806,1.0254291133761225e-10
185,47.210622706178064,1.0241958499058117e-10
186,47.34667974593806,9.652916321021928e-11
187,47.482736785698066,8.848322021930596e-11
188,47.618780219754086,8.85969740803232e-11
189,47.75483725951408,7.773681516005809e-11
190,47.89089429927408,7.792401615585487e-11
191,48.026951339034085,6.31033374700493e-11
192,48.16299477309011,4.2635873650422594e-11
193,48.29905181285011,4.303613969561603e-11
194,48.43506041766452,1.0755701888051624e-10
195,48.43515728755569,1.0755723399404398e-10
196,48.57116589237011,1.0733601647756276e-10
197,48.707222932130115,1.0711564354913745e-10
198,48.84326636618613,1.0689597660675989e-10
199,48.97932340594613,1.0667707408896916e-10
200,49.11538044570613,1.0645890467915572e-10
201,49.251437485466134,1.0624146699388343e-10
202,49.38748091952216,1.0602473042887139e-10
203,49.52353795928216,1.0287987144962562e-10
204,49.65959499904216,9.892032101273122e-11
205,49.79565203880216,9.908152296846519e-11
206,49.93169547285818,9.440730924985373e-11
207,50.06775251261818,9.465064860137356e-11
208,50.20380955237818,8.862237909867955e-11
209,50.33986659213818,8.059817592631884e-11
210,50.47591002619421,8.102708901078047e-11
211,50.61196706595421,6.945359279914923e-11
212,50.74802410571421,6.997432060599723e-11
213,50.884081145474205,5.462810708238866e-11
214,51.02007355950089,5.5033283724066906e-11
215,51.02017559955957,5.503339379053897e-11
216,51.15618161929023,9.493783854573956e-11
217,51.29223865905023,8.933934826833995e-11
218,51.42829569881023,8.983167848191934e-11
219,51.56433913286626,8.286560931030061e-11
220,51.700396172626256,8.189543073673426e-11
221,51.83645321238625,7.445149963398753e-11
222,51.97251025214625,7.30924467987435e-11
223,52.10855368620228,6.312543912718455e-11
224,52.24455848141958,6.10758625324251e-11
225,52.244662970504976,6.107598468411327e-11
226,52.38066776572228,8.871984515860277e-11
227,52.516724805482276,8.309503515521201e-11
228,52.652768239538304,8.336551525426999e-11
229,52.7888252792983,1.4751093845981957e-10
230,52.92482939423041,1.9522711112320237e-10
231,52.924935243886196,1.9522750157741354e-10
232,53.060939358818295,3.056968090244633e-10
233,53.19698279287432,4.5869241565601497e-10
234,53.33303983263433,4.060484073318725e-10
235,53.469096872394324,6.124939971346488e-10
236,53.60515391215433,5.370778294994393e-10
237,53.74119734621035,7.888627645920038e-10
238,53.877254385970346,6.869406784108434e-10
239,54.01331142573034,9.956348569793704e-10
240,54.14936846549035,8.628105220340482e-10
241,54.285411899546375,1.2369972475546915e-09
242,54.55752597906638,1.5214457281857464e-09
243,61.36021469861866,4.741787695359081e-11
244,68.16288981246697,4.877757619318904e-11
245,74.96557853201926,4.9978185280866564e-11
246,81.76825364586757,5.1022732305374366e-11
247,88.57094236541987,5.020869050561164e-11
248,95.37363108497215,4.855750911063632e-11
249,102.17630619882047,4.7526672533141416e-11
250,108.97899491837275,4.637163446040363e-11
251,115.78168363792504,4.502055322081188e-11
252,122.58435875177334,4.366920298405466e-11
253,129.38704747132562,4.233354582654201e-11
254,136.05367915111793,4.105036572213639e-11
255,136.1897361908779,4.102449834679944e-11
256,204.0805119238249,3.015867540493226e-11
257,272.10735830223587,2.6260748515409733e-11
258,340.1341910749428,2.827622773829504e-11
259,408.1610238476498,2.9766654132229485e-11
260,476.18787022606074,3.0954159828433084e-11
261,544.2147029987677,3.192557610211706e-11
262,612.2415493771787,3.296356906159019e-11
263,680.2683821498856,3.572819538998311e-11
264,748.2952149225927,3.84217399021312e-11
265,816.3220613010035,4.1042166453400555e-11
266,884.3488940737104,4.359850191561441e-11
267,952.3757404521215,4.6097747173593945e-11
268,1020.4025732248285,4.854547749215248e-11
269,1088.4294196032395,5.0946241166929575e-11
270,1156.4562523759464,5.3303817470649677e-11
271,1224.4830851486533,5.562140251103253e-11
272,1292.5099315270643,5.790173558863782e-11
273,1360.5367642997712,6.01471906505666e-11
274,1496.590443450889,6.45415508771706e-11
275,1632.644122602007,6.881846300813409e-11
276,1768.697801753125,7.298914322697154e-11
277,1904.7514672985392,7.706279863371071e-11
278,2040.805146449657,8.104712898825159e-11
279,2176.8588256007747,8.494866828671037e-11
280,2312.912504751893,8.87730332083389e-11
281,2448.966183903011,9.252510361463623e-11
282,2585.0198630541286,9.620915844820705e-11
283,2721.0735285995424,9.982897976639683e-11
284,2857.1272077506605,1.0338793623768349e-10
285,2993.180886901778,1.0688904472684675e-10
286,3129.2345660528963,1.1033502407621108e-10
287,3265.288245204014,1.1372833690285535e-10
288,3401.3419107494283,1.1707122355052918e-10
289,3537.3955899005464,1.203657326764782e-10
290,3673.4492690516645,1.236137423705949e-10
291,3809.502948202782,1.268169822144546e-10
292,3945.5566273539002,1.2997704985073034e-10
293,4081.610306505018,1.3309542560231306e-10
294,4217.663972050432,1.3617348451546791e-10
295,4353.717651201549,1.3921250902564738e-10
296,4489.771330352668,1.4221369556009727e-10
297,4625.825009503786,1.4517816468304383e-10
298,4761.878688654903,1.481069675110064e-10
299,4897.932354200318,1.510010919527401e-10
300,5033.986033351435,1.538614696482889e-10
301,5170.039712502553,1.5668897860421547e-10
302,5306.0933916536715,1.5948444906711335e-10
303,5442.147070804789,1.6224866717158633e-10
304,5578.200749955907,1.6498237836758658e-10
305,5714.254415501321,1.6768629009780592e-10
306,5850.308094652439,1.7036107644549e-10
307,5986.361773803556,1.730073779501921e-10
308,6122.415452954675,1.7562580585475922e-10
309,6258.469132105793,1.782169435515652e-10
310,6394.522797651206,1.8078134828019748e-10
311,6530.576476802325,1.833195542139496e-10
312,6666.630155953442,1.8583207189708402e-10
313,6802.68383510456,1.8831939113740798e-10
314,6938.737514255678,1.9078198200001867e-10
315,7074.791179801093,1.9322029562139134e-10
316,7210.8448589522095,1.9563476678269287e-10
317,7346.898538103329,1.9802581279792473e-10
318,7482.952217254446,2.0039383590612768e-10
319,7619.005896405564,2.0273922373563812e-10
320,7755.059575556682,2.0506235016609935e-10
321,7891.113241102096,2.073635757517562e-10
322,8027.166920253213,2.096432497825994e-10
323,8163.220599404332,2.1190170877286557e-10
324,8299.27427855545,2.1413927872475247e-10
325,8435.327957706568,2.1635627492208736e-10
326,8571.38162325198,2.185530024942013e-10
327,8707.435302403099,2.207297580738838e-10
328,8843.488981554217,2.2288682838373692e-10
329,8979.542660705336,2.2502449166524559e-10
330,9115.596339856453,2.2714301821352155e-10
331,9251.650019007571,2.2924267038426914e-10
332,9387.703684552984,2.3132370283303089e-10
333,9523.757363704102,2.3338636408042145e-10
334,9659.81104285522,2.3543089483961965e-10
335,9795.86472200634,2.374575296822144e-10
336,9931.918401157456,2.3946649694581e-10
337,10067.97206670287,2.414580186361459e-10
338,10204.025745853987,2.4343231211992686e-10
339,10340.079425005106,2.453895881550784e-10
340,10476.133104156224,2.4733005275295053e-10
341,10612.186783307343,2.4925390679172627e-10
342,10748.24046245846,2.5116134624332405e-10
343,10884.294128003874,2.530525620984049e-10
344,11020.34780715499,2.5492774201084363e-10
345,11156.40148630611,2.5678706809137144e-10
346,11292.455165457228,2.586307188285915e-10
347,11428.508844608346,2.604588686292294e-10
348,11564.562510153759,2.62271687684891e-10
349,11700.616189304877,2.640693434150605e-10
350,11836.669868455994,2.6585199879291563e-10
351,11972.723547607113,2.6761981361785885e-10
352,12108.777226758231,2.693729443344289e-10
353,12244.83090590935,2.711115440133089e-10
354,12380.884571454762,2.7283576263356553e-10
355,12516.938250605881,2.7454574772475736e-10
356,12652.991929756998,2.7624164316890244e-10
357,12789.045608908116,2.779235903058585e-10
358,12925.099288059235,2.7959172770233707e-10
359,13061.15295360465,2.8124619097685736e-10
360,13197.206632755768,2.828871142067595e-10
361,13333.260311906884,2.8451462793218876e-10
362,13469.313991058003,2.861288606000738e-10
363,13605.36767020912,2.877299383990177e-10
364,16326.441198808663,3.1716519549689386e-10
365,19047.514727408205,3.422061940544869e-10
366,21768.58826961345,3.634834152923645e-10
367,24489.661798212994,3.8149025378619237e-10
368,27210.735326812537,3.966268842208669e-10
369,29931.808869017783,4.092264316037208e-10
370,32652.882397617326,4.195716639034188e-10
371,35373.95592621687,4.2790621863344064e-10
372,38095.029468422115,4.3444248059519816e-10
373,40816.10299702166,4.393673107984141e-10
374,43537.1765392269,4.4284634019360256e-10
375,46258.25006782645,4.4502726718196414e-10
376,48979.32359642599,4.460424507526926e-10
377,51700.39713863123,4.4601098469893804e-10
378,54421.47066723078,4.450403863467337e-10
379,57142.54419583032,4.4322799229877904e-10
380,59863.617738035566,4.40662124416156e-10
381,62584.691266635105,4.374230775521655e-10
382,65305.76479523465,4.3358396291517005e-10
383,68026.8383374399,4.292114351094762e-10
384,70747.91186603945,4.243663240110865e-10
385,73468.98539463898,4.191041876734138e-10
386,76190.05893684423,4.1347579875527605e-10
387,78911.13246544376,4.075275758866988e-10
388,81632.20599404332,4.013019669233841e-10
389,84353.27953624855,3.948377918522916e-10
390,87074.35306484811,3.881705501380753e-10
391,89795.42659344764,3.813814607489379e-10
392,92516.5001356529,3.748517906012424e-10
393,95237.57366425243,3.6865265120174105e-10
394,97958.64719285197,3.6273014760770655e-10
395,100679.72073505721,3.570647457986478e-10
396,103400.79426365678,3.5163877147659845e-10
397,106121.86779225631,3.4643618988952153e-10
398,108842.94133446156,3.414424162760714e-10
399,111564.0148630611,3.3664415234678793e-10
400,114285.08839166064,3.3202924483159527e-10
401,117006.16193386588,3.275865623765467e-10
402,119727.23546246543,3.2330588804590883e-10
403,122448.30900467066,3.191778260442409e-10
404,125169.38253327021,3.151937185151394e-10
405,127890.45606186974,3.1134557336000484e-10
406,130611.529604075,3.0762600056466706e-10
407,133332.60313267456,3.040281545253653e-10
408,136053.6766612741,3.005456848010915e-10
409,138774.75020347934,2.971726905358563e-10
410,141495.8237320789,2.9390368098685924e-10
411,144216.89726067844,2.9073353941829665e-10
412,146937.97080288368,2.876574915130618e-10
413,149659.04433148322,2.8467107643689533e-10
414,156461.72816658777,2.7757044142536103e-10
415,163264.4120016923,2.7094625809966904e-10
416,170067.0958367969,2.647486070192883e-10
417,176869.77965829574,2.5893453269889613e-10
418,183672.4634934003,2.534668483060484e-10
419,190475.14732850486,2.4831318113157697e-10
420,197277.83116360943,2.434452040072017e-10
421,204080.51499871397,2.388380104352012e-10
422,210883.19883381855,2.344696042925496e-10
423,217685.88266892312,2.3032047847021159e-10
424,224488.56649042197,2.2637326601975243e-10
425,231291.25032552652,2.2261244913241433e-10
426,238093.93416063106,2.1902411440309335e-10
427,244896.61799573564,2.1559574696369702e-10
428,251699.30183084018,2.1231605566310887e-10
429,258501.98566594475,2.0917482420625418e-10
430,265304.6695010493,2.061627836365907e-10
431,272107.3533225482,2.032715029950997e-10
432,278910.0371576527,2.0049329493575975e-10
433,285712.7209927573,1.978211336517964e-10
434,292515.4048278619,1.9524858408820724e-10
435,299318.08866296645,1.9276973974575216e-10
436,306120.77249807096,1.9037916844011543e-10
437,312923.45633317553,1.880718647871585e-10
438,319726.1401682801,1.8584320817275113e-10
439,326528.82398977893,1.8368892570588332e-10
440,333331.50782488356,1.8160505963159828e-10
441,340134.1916599881,1.7958793795963615e-10
442,346936.87549509265,1.7763414888219603e-10
443,353739.5593301972,1.7574051744296702e-10
444,360542.24316530174,1.7390408510857047e-10
445,367344.9270004063,1.7212209110801593e-10
446,374147.6108219052,1.7039195593832837e-10
