,E (eV),I (erg/s/cm**2)
0,1.360543186192048,1.9995213365610987e-10
1,2.0408011735840956,2.34206389106577e-10
2,2.7210727666801198,2.6201464689725187e-10
3,3.401344359776144,2.8583862162246976e-10
4,4.081615952872168,3.069035305012722e-10
5,4.761873940264215,3.2591931455702074e-10
6,5.4421455333602395,3.433422649728849e-10
7,6.122417126456264,3.594818705951216e-10
8,6.802688719552288,3.74561044303263e-10
9,7.482946706944335,3.887452743738854e-10
10,8.16321830004036,4.021636916584881e-10
11,8.843489893136384,4.1491606201894064e-10
12,9.523761486232408,4.270831300749071e-10
13,10.204019473624456,4.38730289989396e-10
14,10.884291066720479,4.4991343934326597e-10
15,11.564562659816504,4.6067790166569454e-10
16,12.244834252912527,4.710626719857358e-10
17,12.92510584600855,4.811011778044671e-10
18,13.7414208731606,2.4831547559868213e-10
19,14.421692466256623,1.6560845440125891e-10
20,15.101964059352648,1.265436058521532e-10
21,15.782222046744696,1.0918865189664744e-10
22,16.46249363984072,1.0254040440548486e-10
23,17.142765232936743,1.0111170133558405e-10
24,17.823036826032766,1.0218100069344549e-10
25,18.503294813424816,1.044046367578194e-10
26,19.18356640652084,1.0712204985663812e-10
27,19.863837999616862,1.098794213286193e-10
28,20.544109592712886,1.1252653536395555e-10
29,21.224367580104932,1.1352815542517669e-10
30,21.90463917320096,1.1415635586102487e-10
31,22.584910766296982,1.1502448204454873e-10
32,23.26518235939301,1.1530055833328764e-10
33,23.945440346785055,1.1594748115918656e-10
34,24.62571193988108,1.1582976136818292e-10
35,25.305983532977105,1.162762823790812e-10
36,25.986255126073125,1.1571581781370648e-10
37,26.66652671916915,1.1599029230654292e-10
38,27.210741272505174,1.1614828128588329e-10
39,27.3467847065612,1.1617958395063983e-10
40,27.4828417463212,1.1620777929802809e-10
41,27.618898786081196,1.1623285645096243e-10
42,27.7549558258412,1.1499639453020942e-10
43,27.89099925989722,1.1501979761103407e-10
44,28.02705629965722,1.1504028986928783e-10
45,28.16311333941722,1.1505786015804577e-10
46,28.299170379177223,1.1507255333424822e-10
47,28.435213813233247,1.1508435892228476e-10
48,28.571270852993244,1.1509343152417971e-10
49,28.70732789275325,1.1509975977910214e-10
50,28.843384932513246,1.1510338726548936e-10
51,28.97942836656927,1.1510430313158142e-10
52,29.115485406329267,1.1510265861478581e-10
53,29.25154244608927,1.1509844195208154e-10
54,29.387599485849268,1.1509169522313536e-10
55,29.523642919905292,1.1508240720262137e-10
56,29.659699959665296,1.150707255856375e-10
57,29.795756999425294,1.150566380827041e-10
58,29.931814039185298,1.1504018530414989e-10
59,30.067857473241315,1.1502135539950573e-10
60,30.20391451300132,1.1327030700802274e-10
61,30.339971552761316,1.1325283343039961e-10
62,30.47602859252132,1.1323315839123814e-10
63,30.612072026577344,1.1321126934906996e-10
64,30.74812906633734,1.1318730456668645e-10
65,30.884186106097346,1.1316125050427031e-10
66,31.020243145857343,1.1313314376325453e-10
67,31.156286579913367,1.1310297116798913e-10
68,31.292343619673364,1.1307086753175972e-10
69,31.42840065943337,1.1303681864733243e-10
70,31.564457699193365,1.1300085953895093e-10
71,31.70050113324939,1.1296297635716647e-10
72,31.836558173009394,1.1292330048281323e-10
73,31.97261521276939,1.1288181703169941e-10
74,32.108672252529395,1.1283855943536879e-10
75,32.244715686585415,1.1279351311274536e-10
76,32.38077272634541,1.127468060888644e-10
77,32.51682976610541,1.1269842277429599e-10
78,32.652886805865414,1.1264839497360064e-10
79,32.78893023992144,1.1259670740119724e-10
80,32.92498727968144,1.1254348473165738e-10
81,33.06104431944144,1.1248871070047047e-10
82,33.19710135920144,1.1243241550921922e-10
83,33.33314479325746,1.1000140537768451e-10
84,33.46920183301746,1.0994961800310657e-10
85,33.60525887277746,1.0989639473857674e-10
86,33.74131591253746,1.0984176361680765e-10
87,33.87735934659349,1.0978570820272574e-10
88,34.01341638635349,1.0972834413489825e-10
89,34.14947342611349,1.0966965402711037e-10
90,34.285530465873485,1.0960966443588205e-10
91,34.421573899929506,1.0954835826806403e-10
92,34.55763093968951,1.094858481546131e-10
93,34.69368797944951,1.0942211608524151e-10
94,34.82974501920951,1.0935718719981306e-10
95,34.96578845326554,1.0929104376538065e-10
96,35.101845493025536,1.0922379547494254e-10
97,35.23790253278553,1.0915542368888674e-10
98,35.37395957254554,1.0908595219316688e-10
99,35.51000300660156,1.090153626116225e-10
100,35.646060046361555,1.0894376179685196e-10
101,35.78211708612156,1.0887113052810748e-10
102,35.918174125881556,1.0879749122756096e-10
103,36.054217559937584,1.0872282497568855e-10
104,36.19027459969758,1.0864723578402133e-10
105,36.326331639457585,1.0857070392632802e-10
106,36.46238867921758,1.0849325050380503e-10
107,36.59844571897758,1.0841489638412527e-10
108,36.73448915303361,1.0833562192742448e-10
109,36.870546192793604,1.0825552779128404e-10
110,37.00660323255361,1.0817459354652846e-10
111,37.142660272313606,1.0809283883923481e-10
112,37.27870370636963,1.080102435427345e-10
113,37.41476074612963,1.0792690566561872e-10
114,37.55081778588963,1.0784280435618045e-10
115,37.686874825649625,1.0772303806040755e-10
116,37.82291825970565,1.0756828007636754e-10
117,37.958975299465656,1.0738700497785312e-10
118,38.095032339225654,1.0718443603817435e-10
119,38.23108937898566,1.0369004466664186e-10
120,38.36713281304168,1.034354280828387e-10
121,38.503189852801675,1.0318160407275843e-10
122,38.63924689256167,1.0292853943171678e-10
123,38.77530393232168,1.026762376375806e-10
124,38.911347366377704,1.0242466621034137e-10
125,39.0474044061377,1.0217390013495051e-10
126,39.183461445897706,1.0192390641463261e-10
127,39.3195184856577,1.0167468785115264e-10
128,39.45556191971372,1.0142621216239885e-10
129,39.59161895947372,1.0117855204517351e-10
130,39.727675999233725,1.0135670252453454e-10
131,39.86373303899372,1.7234917457327058e-10
132,39.99977647304975,3.6225871564187573e-10
133,40.135833512809754,6.832426001228943e-10
134,40.27189055256975,1.1206727677429028e-09
135,40.407947592329755,1.357643490567863e-09
136,40.54399102638577,2.0602573511217347e-09
137,40.68004806614577,3.0547974008968568e-09
138,40.81610510590577,3.4193033742403535e-09
139,40.952162145665774,9.874526016998704e-11
140,41.0882055797218,9.850627852014917e-11
141,41.2242626194818,9.826812963039989e-11
142,41.3603196592418,9.803078154257762e-11
143,41.4963766990018,9.779423498835989e-11
144,41.63242013305782,9.755845865742853e-11
145,41.76847717281782,9.732351702324634e-11
146,41.90453421257782,9.70893784165814e-11
147,42.04059125233782,9.685604312483926e-11
148,42.17663468639385,9.662348018231866e-11
149,42.31269172615385,9.63917522253219e-11
150,42.44874876591385,9.616082790622385e-11
151,42.584805805673845,9.593070714547492e-11
152,42.720849239729866,9.57013593086438e-11
153,42.85690627948987,9.547284524902473e-11
154,42.99296331924987,9.524513399298181e-11
155,43.12902035900987,9.501822514559015e-11
156,43.2650637930659,9.4792088367629e-11
157,43.401120832825896,9.45667828673895e-11
158,43.53717787258589,9.43422780509804e-11
159,43.67323491234589,9.411857314830385e-11
160,43.80927834640192,9.389563825271378e-11
161,43.945335386161915,9.367353092979156e-11
162,44.08139242592192,9.345222097016082e-11
163,44.217449465681916,9.323170736263472e-11
164,44.353492899737944,9.301196048603132e-11
165,44.48954993949794,9.279303647836817e-11
166,44.62560697925794,9.257490545379726e-11
167,44.761664019017935,9.235756616137398e-11
168,44.89770745307396,9.214098937671485e-11
169,45.03376449283397,9.192522974159519e-11
170,45.169821532593964,9.171025780326245e-11
171,45.30587857235397,9.149607207084341e-11
172,45.44192200640999,9.128264371862478e-11
173,45.577979046169986,9.10700259711222e-11
174,45.71403608592998,9.085818978814795e-11
175,45.85009312568999,9.064713347968783e-11
176,45.986136559746015,9.043682861961062e-11
177,46.12219359950601,9.022732711134147e-11
178,46.258250639266016,9.001860028555806e-11
179,46.394307679026014,8.98106462917384e-11
180,46.53035111308204,8.960343710337826e-11
181,46.66640815284203,8.939702333325184e-11
182,46.802465192602035,8.919137674466083e-11
183,46.93852223236203,8.898649532191996e-11
184,47.07456566641806,8.878235143740198e-11
185,47.210622706178064,8.857899450278194e-11
186,47.34667974593806,8.317809279027131e-11
187,47.482736785698066,8.303553402296623e-11
188,47.618780219754086,7.579308672277644e-11
189,47.75483725951408,6.598428850102077e-11
190,47.89089429927408,6.617327851258429e-11
191,48.026951339034085,5.294670512621833e-11
192,48.16299477309011,3.474285565803955e-11
193,48.29905181285011,3.52415254930243e-11
194,48.43506041766452,8.6782547309486e-11
195,48.43515728755569,8.678272087416911e-11
196,48.57116589237011,8.658677042831723e-11
197,48.707222932130115,8.63916436481619e-11
198,48.84326636618613,8.619722738694085e-11
199,48.97932340594613,8.600356743051846e-11
200,49.11538044570613,8.581063726760368e-11
201,49.251437485466134,8.561843445807751e-11
202,49.38748091952216,8.54269330856049e-11
203,49.52353795928216,8.523617785414314e-11
204,49.65959499904216,8.504614268904042e-11
205,49.79565203880216,8.485682510911493e-11
206,49.93169547285818,7.981498086541767e-11
207,50.06775251261818,7.987741339972437e-11
208,50.20380955237818,7.390803289587783e-11
209,50.33986659213818,6.632775311257363e-11
210,50.47591002619421,6.688431439888487e-11
211,50.61196706595421,5.708608987030062e-11
212,50.74802410571421,5.775129077546018e-11
213,50.884081145474205,4.4854506646479145e-11
214,51.02007355950089,4.516039224249558e-11
215,51.02017559955957,4.516048256320179e-11
216,51.15618161929023,7.888811923249874e-11
217,51.29223865905023,7.384640543867446e-11
218,51.42829569881023,7.447968106253425e-11
219,51.56433913286626,6.883410067294795e-11
220,51.700396172626256,6.940286395372589e-11
221,51.83645321238625,6.077650448225916e-11
222,51.97251025214625,5.955012155457523e-11
223,52.10855368620228,5.05814391713013e-11
224,52.24455848141958,4.874183012312905e-11
225,52.244662970504976,4.874192760675984e-11
226,52.38066776572228,7.170869524191239e-11
227,52.516724805482276,6.643402968279185e-11
228,52.652768239538304,6.690950148516013e-11
229,52.7888252792983,6.013033107878811e-11
230,52.92482939423041,8.069451302320014e-11
231,52.924935243886196,8.06946744122216e-11
232,53.060939358818295,8.052172959974416e-11
233,53.19698279287432,2.7064809697769344e-10
234,53.33303983263433,2.4339348171327305e-10
235,53.469096872394324,3.9904057736367814e-10
236,53.60515391215433,3.5252193509735324e-10
237,53.74119734621035,5.548553633151988e-10
238,53.877254385970346,4.849593022349364e-10
239,54.01331142573034,7.418349474669511e-10
240,54.14936846549035,6.441882541439955e-10
241,54.285411899546375,9.55194854878582e-10
242,54.55752597906638,1.201332553749531e-09
243,61.36021469861866,3.8488805267989893e-11
244,68.16288981246697,3.951518252046974e-11
245,74.96557853201926,4.0727553987874916e-11
246,81.76825364586757,4.0893308390178843e-11
247,88.57094236541987,4.019234779243036e-11
248,95.37363108497215,3.997383329044079e-11
249,102.17630619882047,3.905180721311792e-11
250,108.97899491837275,3.638701358682818e-11
251,115.78168363792504,3.5092075606887785e-11
252,122.58435875177334,3.3829602995606325e-11
253,129.38704747132562,3.260919137061859e-11
254,136.05367915111793,3.1459244797338395e-11
255,136.1897361908779,3.1436273123903685e-11
256,204.0805119238249,2.23515671201642e-11
257,272.10735830223587,1.9098430201596496e-11
258,340.1341910749428,2.042388585108529e-11
259,408.1610238476498,2.1424728147760928e-11
260,476.18787022606074,2.223586953840182e-11
261,544.2147029987677,2.2907466879586536e-11
262,612.2415493771787,2.3591035161219016e-11
263,680.2683821498856,2.5555626234210793e-11
264,748.2952149225927,2.7473995558258934e-11
265,816.3220613010035,2.9341737273559085e-11
266,884.3488940737104,3.1164814963024884e-11
267,952.3757404521215,3.2947909412633983e-11
268,1020.4025732248285,3.4694786917152856e-11
269,1088.4294196032395,3.6408547222037295e-11
270,1156.4562523759464,3.809178490403157e-11
271,1224.4830851486533,3.974670766734163e-11
272,1292.5099315270643,4.137521730036397e-11
273,1360.5367642997712,4.297896880659663e-11
274,1496.590443450889,4.6117856901475333e-11
275,1632.644122602007,4.9173189340736085e-11
276,1768.697801753125,5.215287595619728e-11
277,1904.7514672985392,5.506342910451607e-11
278,2040.805146449657,5.791030678040704e-11
279,2176.8588256007747,6.069814793305008e-11
280,2312.912504751893,6.343094503778627e-11
281,2448.966183903011,6.611216984315441e-11
282,2585.0198630541286,6.874486875201602e-11
283,2721.0735285995424,7.133173584489292e-11
284,2857.1272077506605,7.387517168924388e-11
285,2993.180886901778,7.637732693045564e-11
286,3129.2345660528963,7.884014029211214e-11
287,3265.288245204014,8.126536808911163e-11
288,3401.3419107494283,8.36546084350234e-11
289,3537.3955899005464,8.600932294539093e-11
290,3673.4492690516645,8.833085167404998e-11
291,3809.502948202782,9.062042879632457e-11
292,3945.5566273539002,9.28791944478842e-11
293,4081.610306505018,9.51082051363325e-11
294,4217.663972050432,9.730844225309752e-11
295,4353.717651201549,9.948082110242458e-11
296,4489.771330352668,1.0162619570795089e-10
297,4625.825009503786,1.037453658722957e-10
298,4761.878688654903,1.0583908193442229e-10
299,4897.932354200318,1.0790804902411932e-10
300,5033.986033351435,1.0995293222049464e-10
301,5170.039712502553,1.1197435821909446e-10
302,5306.0933916536715,1.1397291970772124e-10
303,5442.147070804789,1.1594917787752025e-10
304,5578.200749955907,1.1790366479244042e-10
305,5714.254415501321,1.19836885518271e-10
306,5850.308094652439,1.2174932117657743e-10
307,5986.361773803556,1.236414290598549e-10
308,6122.415452954675,1.2551364541684254e-10
309,6258.469132105793,1.2736638674086306e-10
310,6394.522797651206,1.2920005072548837e-10
311,6530.576476802325,1.3101501873291693e-10
312,6666.630155953442,1.3281165515710081e-10
313,6802.68383510456,1.34590309608263e-10
314,6938.737514255678,1.3635131762472824e-10
315,7074.791179801093,1.3809500119274445e-10
316,7210.8448589522095,1.39821670679781e-10
317,7346.898538103329,1.4153162388052693e-10
318,7482.952217254446,1.4322514795117835e-10
319,7619.005896405564,1.449025194817821e-10
320,7755.059575556682,1.4656400537424692e-10
321,7891.113241102096,1.4820986294745196e-10
322,8027.166920253213,1.4984034144079574e-10
323,8163.220599404332,1.5145568114097365e-10
324,8299.27427855545,1.530561145507681e-10
325,8435.327957706568,1.5464186676069967e-10
326,8571.38162325198,1.5621315554087964e-10
327,8707.435302403099,1.57770192594808e-10
328,8843.488981554217,1.5931318240197098e-10
329,8979.542660705336,1.608423237134631e-10
330,9115.596339856453,1.6235780923952412e-10
331,9251.650019007571,1.638598263537241e-10
332,9387.703684552984,1.6534855663210728e-10
333,9523.757363704102,1.6682417749587529e-10
334,9659.81104285522,1.682868607159401e-10
335,9795.86472200634,1.6973677363916718e-10
336,9931.918401157456,1.7117407915992193e-10
337,10067.97206670287,1.7259893572944852e-10
338,10204.025745853987,1.7401149844886646e-10
339,10340.079425005106,1.7541191769975383e-10
340,10476.133104156224,1.7680034047514765e-10
341,10612.186783307343,1.7817691002100849e-10
342,10748.24046245846,1.79541766243188e-10
343,10884.294128003874,1.8089504541006178e-10
344,11020.34780715499,1.822368813248157e-10
345,11156.40148630611,1.8356740399865536e-10
346,11292.455165457228,1.8488674068949107e-10
347,11428.508844608346,1.8619501586720079e-10
348,11564.562510153759,1.8749235095013366e-10
349,11700.616189304877,1.887788654219803e-10
350,11836.669868455994,1.9005467546128404e-10
351,11972.723547607113,1.9131989511096138e-10
352,12108.777226758231,1.9257463593142694e-10
353,12244.83090590935,1.9381900720719167e-10
354,12380.884571454762,1.9505311583843423e-10
355,12516.938250605881,1.96277067065463e-10
356,12652.991929756998,1.974909636149894e-10
357,12789.045608908116,1.986949061728084e-10
358,12925.099288059235,1.9988899371796902e-10
359,13061.15295360465,2.0107332289649768e-10
360,13197.206632755768,2.0224798934643456e-10
361,13333.260311906884,2.0341308622660609e-10
362,13469.313991058003,2.0456870515605183e-10
363,13605.36767020912,2.0571493609457098e-10
364,16326.441198808663,2.26793766381871e-10
365,19047.514727408205,2.44736217337049e-10
366,21768.58826961345,2.59991847747521e-10
367,24489.661798212994,2.729124173715593e-10
368,27210.735326812537,2.837831995309551e-10
369,29931.808869017783,2.9284165807696694e-10
370,32652.882397617326,3.0028935907491227e-10
371,35373.95592621687,3.0629997940251905e-10
372,38095.029468422115,3.1102492603844574e-10
373,40816.10299702166,3.145974210395701e-10
374,43537.1765392269,3.1713556289276617e-10
375,46258.25006782645,3.187446771010912e-10
376,48979.32359642599,3.195191640204171e-10
377,51700.39713863123,3.195439765732896e-10
378,54421.47066723078,3.188958234401967e-10
379,57142.54419583032,3.176441629968369e-10
380,59863.617738035566,3.1585203397288427e-10
381,62584.691266635105,3.1357675798066514e-10
382,65305.76479523465,3.1087054062943534e-10
383,68026.8383374399,3.0778098881265374e-10
384,70747.91186603945,3.043515600088372e-10
385,73468.98539463898,3.006219564112226e-10
386,76190.05893684423,2.9662847085647686e-10
387,78911.13246544376,2.9240429343701064e-10
388,81632.20599404332,2.8797978469035667e-10
389,84353.27953624855,2.833827192502592e-10
390,87074.35306484811,2.786385048008171e-10
391,89795.42659344764,2.7378211139530377e-10
392,92516.5001356529,2.690892792472785e-10
393,95237.57366425243,2.6463884688703705e-10
394,97958.64719285197,2.6038701512775955e-10
395,100679.72073505721,2.5631976023356785e-10
396,103400.79426365678,2.5242439346097275e-10
397,106121.86779225631,2.4868940334509365e-10
398,108842.94133446156,2.4510431926109535e-10
399,111564.0148630611,2.4165959415302943e-10
400,114285.08839166064,2.383465029842452e-10
401,117006.16193386588,2.3515705441495134e-10
402,119727.23546246543,2.3208391367872226e-10
403,122448.30900467066,2.2912033524174684e-10
404,125169.38253327021,2.262601035060845e-10
405,127890.45606186974,2.2349748103167405e-10
406,130611.529604075,2.208271621515898e-10
407,133332.60313267456,2.1824423260031392e-10
408,136053.6766612741,2.157441330826656e-10
409,138774.75020347934,2.13322627368272e-10
410,141495.8237320789,2.1097577359752037e-10
411,144216.89726067844,2.0869989836370485e-10
412,146937.97080288368,2.0649157418090083e-10
413,149659.04433148322,2.043475984705637e-10
414,156461.72816658777,1.9924998628389988e-10
415,163264.4120016923,1.9449442458524754e-10
416,170067.0958367969,1.900450755034762e-10
417,176869.77965829574,1.8587110071424548e-10
418,183672.4634934003,1.8194580332048807e-10
419,190475.14732850486,1.7824594258539802e-10
420,197277.83116360943,1.747511819973702e-10
421,204080.51499871397,1.7144364092011465e-10
422,210883.19883381855,1.683075280032915e-10
423,217685.88266892312,1.6532883884730954e-10
424,224488.56649042197,1.6249510559196513e-10
425,231291.25032552652,1.5979518768901384e-10
426,238093.93416063106,1.5721909662016555e-10
427,244896.61799573564,1.5475784776707878e-10
428,251699.30183084018,1.5240333509254158e-10
429,258501.98566594475,1.5014822419888586e-10
430,265304.6695010493,1.4798586078358485e-10
431,272107.3533225482,1.4591019214363596e-10
432,278910.0371576527,1.439156994834132e-10
433,285712.7209927573,1.419973388589287e-10
434,292515.4048278619,1.4015049046099467e-10
435,299318.08866296645,1.3837091396275444e-10
436,306120.77249807096,1.366547095783961e-10
437,312923.45633317553,1.349982838263554e-10
438,319726.1401682801,1.3339831951534127e-10
439,326528.82398977893,1.3185174911441517e-10
440,333331.50782488356,1.3035573129713998e-10
441,340134.1916599881,1.2890762991719696e-10
442,346936.87549509265,1.2750499558266677e-10
443,353739.5593301972,1.2614554896660032e-10
444,360542.24316530174,1.2482716611115322e-10
445,367344.9270004063,1.235478650029074e-10
446,374147.6108219052,1.2230579378944216e-10
447,380950.2946570097,1.210992200524627e-10
